Date: 09.03.26
Time: 16:42:33
Client: 
Session: 
Device: Neurobit Optima+ 4 USB
Signals: 1
Channel	A
Min	-800
Max	800
Unit	uV
SR	1000
Label	EMG
Sensor	AgAgCl
	394.873  
	10.4394  
	11.6636  
	-12.847  
	-64.922  
	-68.6535 
	-111.306 
	-162.781 
	-94.7156 
	-71.6583 
	-67.4743 
	91.6826  
	127.511  
	5.02264  
	-26.744  
	-153.673 
	-343.244 
	-432.063 
	-517.812 
	-574.131 
	-601.586 
	-429.959 
	-121.65  
	-134.958 
	-362.297 
	-541.181 
	-667.897 
	-745.616 
	-800     
	-713.286 
	-535.619 
	-417.678 
	-278.081 
	-46.5984 
	87.1524  
	91.4761  
	67.6687  
	-293.007 
	-719.542 
	-800     
	-742.367 
	-513.814 
	-326.839 
	-217.878 
	-199.393 
	-272.215 
	-263.116 
	-274.255 
	-301.056 
	-342.27  
	-506.655 
	-716.634 
	-800     
	-800     
	-773.755 
	-755.516 
	-595.379 
	-470.399 
	-463.39  
	-364.977 
	-299.75  
	-317.308 
	-426.762 
	-444.007 
	-381.558 
	-448.719 
	-424.214 
	-376.291 
	-462.804 
	-425.37  
	-307.93  
	-255.25  
	-181.766 
	-140.788 
	-230.794 
	-320.874 
	-272.878 
	-230.338 
	-234.855 
	-198.704 
	-235.623 
	-265.204 
	-181.043 
	-145.286 
	-89.7176 
	24.1138  
	52.0693  
	34.2145  
	108.982  
	255.854  
	326.131  
	241.903  
	62.2218  
	9.17593  
	54.648   
	68.4478  
	-54.3926 
	-333.08  
	-513.775 
	-609.59  
	-612.027 
	-544.749 
	-449.621 
	-295.379 
	-427.241 
	-593.856 
	-577.394 
	-769.751 
	-800     
	-800     
	-800     
	-707.44  
	-773.426 
	-731.674 
	-496.775 
	-429.056 
	-306.779 
	-20.4111 
	62.435   
	47.5607  
	139.108  
	121.675  
	125.128  
	85.6474  
	-55.2504 
	-117.929 
	-279.273 
	-362.822 
	-327.357 
	-313.178 
	-195.56  
	-333.586 
	-613.235 
	-565.711 
	-516.766 
	-396.105 
	-244.182 
	-340.774 
	-353.742 
	-358.002 
	-389.231 
	-418.156 
	-529.152 
	-559.059 
	-587.933 
	-524.164 
	-400.44  
	-454.272 
	-429.244 
	-298.09  
	-222.403 
	-116.371 
	101.222  
	300.355  
	341.448  
	376.123  
	234.629  
	74.4008  
	54.6257  
	-196.51  
	-319.534 
	-231.782 
	-259.932 
	-284.077 
	-278.248 
	-272.992 
	-255.428 
	-221.433 
	-242.017 
	-437.616 
	-691.482 
	-800     
	-781.135 
	-631.218 
	-643.005 
	-677.306 
	-623.857 
	-602.07  
	-521.348 
	-548.463 
	-522.892 
	-326.437 
	-274.039 
	-167.08  
	39.2907  
	219.466  
	378.765  
	426.175  
	409.152  
	313.548  
	269.858  
	194.981  
	9.85122  
	-84.1461 
	-241.676 
	-339.662 
	-285.215 
	-222.773 
	-137.473 
	-160.8   
	-247.377 
	-338.28  
	-438.597 
	-518.602 
	-647.287 
	-670.361 
	-668.683 
	-722.424 
	-527.056 
	-373.472 
	-396.013 
	-302.263 
	-354.963 
	-569.472 
	-588.253 
	-454.603 
	-278.082 
	-161.53  
	-242.203 
	-233.893 
	-138.815 
	-224.361 
	-237.816 
	-183.805 
	-233.485 
	-224.727 
	-200.815 
	-161.265 
	98.3893  
	287.722  
	234.373  
	204.223  
	88.9077  
	-20.7269 
	-103.032 
	-472.923 
	-739.797 
	-530.469 
	-308.071 
	-353.004 
	-340.68  
	-299.792 
	-359.034 
	-347.991 
	-376.068 
	-426.263 
	-364.775 
	-336.72  
	-314.865 
	-283.881 
	-256.637 
	-114.686 
	-83.3708 
	-242.316 
	-315.472 
	-284.267 
	-184.24  
	-49.6927 
	-43.9891 
	-140.836 
	-248.867 
	-325.035 
	-316.983 
	-347.776 
	-395.318 
	-301.643 
	-217.096 
	-187.198 
	-130.355 
	-232.064 
	-348.801 
	-283.385 
	-259.046 
	-136.602 
	98.2974  
	108.21   
	11.2223  
	5.34732  
	39.9969  
	44.0436  
	-4.87028 
	36.4573  
	159.002  
	70.773   
	-26.7051 
	-35.0941 
	-252.791 
	-451.248 
	-532.205 
	-734.453 
	-800     
	-736.375 
	-477.003 
	-326.123 
	-267.263 
	-209.684 
	-128.944 
	-228.802 
	-283.47  
	-131.736 
	-257.443 
	-355.229 
	-174.968 
	-166.541 
	-131.299 
	-27.316  
	-111.706 
	-193.352 
	-278.747 
	-373.981 
	-288.029 
	-141.018 
	-189.558 
	-337.377 
	-378.352 
	-452.373 
	-515.01  
	-470.453 
	-376.904 
	-260.287 
	-338.263 
	-412.164 
	-269.261 
	-215.581 
	-266.932 
	-254.16  
	-85.9682 
	105.42   
	119.368  
	24.603   
	-279.795 
	-413.223 
	-157.582 
	-122.357 
	-112.736 
	-29.1792 
	-151.372 
	-262.822 
	-342.11  
	-305.952 
	-226.299 
	-298.509 
	-319.142 
	-278.271 
	-309.26  
	-395.509 
	-438.326 
	-239.81  
	8.23533  
	33.9036  
	174.357  
	195.565  
	-158.693 
	-198.591 
	-93.9689 
	-174.599 
	-193.393 
	-412.011 
	-623.559 
	-415.157 
	-229.197 
	-209.521 
	-220.004 
	-336.35  
	-338.447 
	-310.638 
	-392.104 
	-425.268 
	-390.441 
	-327.63  
	-379.648 
	-473.35  
	-538.387 
	-499.322 
	-282.374 
	-142.52  
	-50.419  
	26.1908  
	85.0214  
	195.499  
	204.277  
	166.866  
	227.115  
	121.61   
	-196.508 
	-279.457 
	-271.467 
	-213.465 
	-48.9355 
	-190.165 
	-226.32  
	-97.3769 
	-158.317 
	-107.066 
	-164.208 
	-312.732 
	-89.6476 
	136.822  
	2.36412  
	-124.571 
	-37.8703 
	67.5704  
	46.1741  
	-128.797 
	-183.263 
	-168.917 
	-290.261 
	-316.569 
	-430.415 
	-613.341 
	-475.376 
	-249.448 
	-104.802 
	50.498   
	81.7941  
	112.324  
	140.064  
	-54.572  
	-233.085 
	-494.922 
	-771.877 
	-606.173 
	-465.586 
	-585.518 
	-532.558 
	-370.476 
	-330.533 
	-374.862 
	-392.62  
	-399.319 
	-428.055 
	-468.493 
	-517.929 
	-540.905 
	-529.982 
	-545.325 
	-587.787 
	-596.167 
	-577.482 
	-554.441 
	-499.833 
	-323.641 
	-203.027 
	-203.376 
	-4.81579 
	241.762  
	317.285  
	330.224  
	330.26   
	331.516  
	235.302  
	134.806  
	98.0389  
	69.1459  
	116.7    
	164.53   
	110.975  
	6.95713  
	-94.6203 
	-261.008 
	-316.152 
	-323.459 
	-342.679 
	-264.47  
	-162.553 
	106.42   
	11.7532  
	-260.4   
	-123.514 
	-180.747 
	-173.138 
	11.6096  
	-45.6825 
	-61.1091 
	-197.218 
	-486.27  
	-539.185 
	-451.922 
	-352.457 
	-199.763 
	-140.97  
	-188.925 
	-16.9294 
	73.9591  
	-141.87  
	-115.675 
	-127.799 
	-452.447 
	-650.479 
	-655.131 
	-560.112 
	-531.373 
	-507.614 
	-343.774 
	-250.586 
	-230.918 
	-220.849 
	-275.702 
	-297.11  
	-238.28  
	-202.22  
	-175.033 
	-196.631 
	-271.921 
	-241.164 
	-223.025 
	-241.289 
	-172.344 
	-97.3578 
	-153.542 
	-301.892 
	-337.47  
	-317.711 
	-315.454 
	-330.836 
	-355.798 
	-303.955 
	-288.894 
	-322.424 
	-324.157 
	-259.691 
	-129.075 
	-95.6597 
	-112.968 
	-133.17  
	-202.116 
	-234.078 
	-280.614 
	-295.89  
	-194.622 
	-0.175584
	199.417  
	234.237  
	213.136  
	317.08   
	397.46   
	307.342  
	235.102  
	262.635  
	253.677  
	260.199  
	224.097  
	174.478  
	188.515  
	-29.4568 
	-360.534 
	-549.349 
	-587.705 
	-441.836 
	-253.704 
	-188.175 
	-250.286 
	-278.644 
	-327.218 
	-454.338 
	-412.553 
	-247.233 
	-134.154 
	-130.462 
	-201.047 
	-192.79  
	-242.477 
	-283.314 
	-220.827 
	-236.875 
	-218.549 
	-194.137 
	-297.823 
	-431.412 
	-468.6   
	-392.251 
	-180.554 
	-121.358 
	-407.09  
	-544.888 
	-525.836 
	-588.652 
	-613.201 
	-669.413 
	-697.884 
	-602.712 
	-516.28  
	-482.452 
	-394.93  
	-310.573 
	-339.282 
	-262.713 
	-121.311 
	-78.7878 
	-2.70991 
	40.321   
	-7.80536 
	-21.6448 
	-53.4099 
	-170.533 
	-205.505 
	-179.653 
	-201.559 
	-154.885 
	-90.3229 
	-98.3724 
	-95.5527 
	-154.204 
	-236.843 
	-133.222 
	23.5463  
	141.75   
	219.461  
	214.023  
	211.717  
	241.538  
	240.936  
	142.747  
	207.358  
	218.968  
	-4.8912  
	69.4863  
	178.018  
	57.3365  
	-12.8227 
	-21.0915 
	-38.0767 
	-50.3468 
	-185.086 
	-401.061 
	-272.618 
	-146.173 
	-330.538 
	-268.717 
	-130.109 
	-289.357 
	-398.473 
	-366.307 
	-272.711 
	-209.804 
	-236.776 
	-260.208 
	-438.187 
	-641.709 
	-650.232 
	-524.368 
	-350.178 
	-279.37  
	-260.452 
	-190.3   
	-80.1333 
	-47.2006 
	-193.58  
	-270.34  
	-289.684 
	-396.435 
	-442.103 
	-450.807 
	-411.468 
	-435.767 
	-536.875 
	-507.789 
	-426.659 
	-298.826 
	-97.2071 
	19.1263  
	-50.9609 
	-107.647 
	-84.1996 
	-112.164 
	-135.026 
	-164.748 
	-161.243 
	-124.157 
	-170.803 
	-204.36  
	-199.487 
	-227.551 
	-237.146 
	-203.235 
	-106.263 
	-30.8408 
	-25.9533 
	6.09671  
	34.0374  
	10.7285  
	30.026   
	63.3852  
	-24.3958 
	0.0656739
	46.6769  
	-31.5357 
	57.6975  
	147.86   
	297.611  
	294.806  
	-9.1991  
	-52.2076 
	16.9175  
	100.157  
	58.5031  
	-227.08  
	-368.535 
	-421.598 
	-398.705 
	-276.071 
	-266.429 
	-242.584 
	-161.173 
	-191.407 
	-285.83  
	-318.682 
	-369.864 
	-542.587 
	-571.004 
	-636.076 
	-800     
	-787.771 
	-544.62  
	-356.953 
	-95.003  
	61.3763  
	141.946  
	226.218  
	219.791  
	129.813  
	-76.1456 
	-296.107 
	-450.822 
	-578.074 
	-555.886 
	-402.199 
	-333.415 
	-408.837 
	-478.654 
	-401.75  
	-233.158 
	-148.642 
	-129.825 
	-130.312 
	-134.92  
	-128.348 
	-135.107 
	-186.171 
	-334.41  
	-347.561 
	-198.071 
	-78.377  
	27.3352  
	-10.8883 
	-62.8451 
	12.4954  
	-10.7241 
	-33.1192 
	121.704  
	348.214  
	372.29   
	246.78   
	266.608  
	130.101  
	-111.47  
	-93.4052 
	-161.329 
	-130.414 
	53.6183  
	-122.147 
	-252.165 
	-290.984 
	-443.318 
	-380.164 
	-287.468 
	-423.468 
	-516.209 
	-314.059 
	-152.339 
	-246.738 
	-233.931 
	-139.243 
	-249.375 
	-268.661 
	-96.7835 
	-10.5982 
	-13.3832 
	-30.3585 
	-10.3007 
	-67.5758 
	-176.842 
	-155.118 
	-137.093 
	-270.547 
	-306.404 
	-156.431 
	-145.916 
	-213.522 
	-281.024 
	-431.645 
	-443.857 
	-249.623 
	-147.32  
	-221.899 
	-197.431 
	-155.35  
	-168.814 
	-200.862 
	-346.952 
	-327.81  
	-186.943 
	-165.273 
	-146.936 
	-132.952 
	-96.3828 
	-79.2981 
	-161.029 
	-170.531 
	-111.744 
	-104.046 
	-84.1903 
	-51.0061 
	-165.987 
	-324.704 
	-328.702 
	-339.96  
	-370.247 
	-360.354 
	-393.408 
	-428.936 
	-354.564 
	-177.67  
	-56.819  
	32.7301  
	81.8408  
	64.2225  
	95.9562  
	152.411  
	140.416  
	12.2694  
	-182.833 
	-301.907 
	-191.042 
	-50.0918 
	-157.513 
	-246.829 
	-177.264 
	-131.635 
	-124.729 
	-138.494 
	-63.9622 
	17.3074  
	-18.3117 
	-2.42303 
	27.5337  
	-1.37277 
	27.6308  
	125.216  
	149.371  
	173.871  
	159.25   
	88.2889  
	22.6081  
	-189.661 
	-199.719 
	-122.803 
	-286.187 
	-346.844 
	-291.433 
	-260.785 
	-301.904 
	-375.874 
	-320.92  
	-112.406 
	-29.5815 
	-104.26  
	-63.4279 
	-296.682 
	-741.845 
	-678.078 
	-398.596 
	-391.503 
	-373.96  
	-315.741 
	-343.683 
	-187.493 
	-1.84116 
	-13.2283 
	-45.8874 
	-39.9958 
	-67.6287 
	-211.725 
	-355.356 
	-332.978 
	-285.983 
	-322.079 
	-354.595 
	-233.703 
	-41.0366 
	-103.352 
	-216.77  
	-179.19  
	-75.2387 
	112.3    
	195.944  
	167.915  
	69.6933  
	-10.4407 
	57.2154  
	25.9601  
	-69.7261 
	-94.5955 
	-132.175 
	-173.146 
	-186.967 
	-93.1966 
	44.4227  
	114.585  
	36.8544  
	-181.271 
	-245.2   
	-132.49  
	-82.6288 
	-156.549 
	-248.745 
	-242.446 
	-177.499 
	-95.6498 
	-62.6879 
	-11.8363 
	-54.6691 
	-198.595 
	-162.342 
	-265.624 
	-412.153 
	-348.447 
	-262.739 
	-140.142 
	-75.5586 
	-42.537  
	37.1068  
	197.53   
	325.747  
	266.839  
	128.087  
	-50.2333 
	-176.118 
	-252.496 
	-310.754 
	-260.191 
	-143.209 
	-99.5961 
	-187.241 
	-209.059 
	-186.518 
	-248.632 
	-276.506 
	-349.865 
	-491.552 
	-546.359 
	-591.696 
	-674.901 
	-686.702 
	-658.236 
	-543.772 
	-336.472 
	-203.614 
	-78.6405 
	9.31556  
	-19.2639 
	-147.403 
	-171.199 
	95.206   
	195.323  
	104.756  
	98.7781  
	88.9087  
	54.3741  
	-55.8296 
	-103.653 
	-81.5055 
	-89.0106 
	-88.7453 
	-91.2854 
	-4.42755 
	77.7543  
	129.902  
	293.59   
	403.43   
	437.793  
	265.133  
	-197.968 
	-324.526 
	-75.8327 
	-23.5417 
	-171.112 
	-206.669 
	-60.3962 
	23.5009  
	-118.231 
	-322.039 
	-398.167 
	-389.489 
	-399.536 
	-429.637 
	-386.997 
	-297.85  
	-296.947 
	-286.021 
	-125.745 
	19.4727  
	0.508584 
	-32.4447 
	-2.35814 
	13.5493  
	-131.554 
	-317.678 
	-126.195 
	184.931  
	293.245  
	239.666  
	96.8922  
	51.5617  
	-83.5155 
	-230.704 
	-262.661 
	-406.61  
	-537.604 
	-599.788 
	-680.147 
	-609.253 
	-392.488 
	-234.67  
	-113.248 
	-108.912 
	-220.979 
	-211.05  
	-52.5981 
	80.3835  
	-7.50267 
	-196.763 
	-249.101 
	-206.801 
	-128.531 
	-83.6527 
	-163.937 
	-132.797 
	-75.2769 
	-217.091 
	-155.533 
	-5.43036 
	-107.57  
	-127.514 
	-27.8314 
	-33.706  
	-50.5942 
	-50.4013 
	-89.1612 
	-118.75  
	-109.843 
	-41.7315 
	141.231  
	383.217  
	403.983  
	325.658  
	311.068  
	168.648  
	111.426  
	130.655  
	56.309   
	-46.2639 
	-142.473 
	-92.7146 
	-33.2208 
	-67.891  
	-201.646 
	-346.392 
	-314.738 
	-229.557 
	-148.902 
	-170.598 
	-282.304 
	-331.139 
	-309.685 
	-242.002 
	-222.887 
	-265.297 
	-344.97  
	-370.858 
	-337.328 
	-307.228 
	-324.527 
	-415.163 
	-331.475 
	-185.918 
	-206.374 
	-180.959 
	-129.495 
	-120.543 
	-128.462 
	-271.079 
	-404.962 
	-299.83  
	-129.503 
	-120.356 
	-188.278 
	-182.898 
	-106.624 
	-112.423 
	-151.749 
	-23.7273 
	165.69   
	314.699  
	361.986  
	232.762  
	112.832  
	74.9595  
	50.9638  
	69.6     
	120.202  
	113.512  
	-69.8299 
	-236.167 
	-62.9359 
	202.582  
	221.249  
	189.709  
	227.133  
	108.994  
	-34.9966 
	-42.4431 
	-100.463 
	-263.522 
	-344.663 
	-185.398 
	-201.61  
	-460.458 
	-449.175 
	-313.031 
	-229.317 
	-233.689 
	-283.299 
	-142.492 
	-56.7819 
	-72.6266 
	-114.198 
	-283.111 
	-318.017 
	-297.832 
	-259.245 
	3.25262  
	109.762  
	-48.6451 
	-140.898 
	-115.217 
	-81.901  
	-49.648  
	87.0843  
	144.117  
	-99.1382 
	-360.96  
	-337.62  
	-169.686 
	-74.07   
	-21.4652 
	1.40528  
	-45.6965 
	-89.0264 
	-123.787 
	-197.483 
	-230.892 
	-240.92  
	-414.667 
	-522.353 
	-384.681 
	-288.196 
	-191.259 
	-46.2356 
	98.4173  
	185.747  
	224.715  
	347.344  
	310.981  
	191.098  
	74.1245  
	-97.6794 
	-39.1275 
	104.024  
	170.733  
	167.069  
	165.462  
	246.494  
	78.3896  
	51.3385  
	239.321  
	54.5225  
	64.8103  
	178.375  
	-12.358  
	-300.734 
	-657.667 
	-545.4   
	-205.531 
	-138.336 
	-170.93  
	-294.588 
	-281.13  
	-192.329 
	-328.166 
	-380.134 
	-273.219 
	-284.095 
	-255.192 
	-250.809 
	-327.924 
	-118.64  
	124.542  
	71.5986  
	106.684  
	124.557  
	-41.1711 
	-52.1426 
	29.4462  
	79.3192  
	54.9494  
	21.9422  
	43.7065  
	-39.8665 
	-150.063 
	-139.122 
	-107.468 
	-168.682 
	-218.976 
	-160.024 
	-221.334 
	-322.652 
	-203.845 
	-185.387 
	-247.43  
	-115.447 
	-15.8602 
	-44.4898 
	-92.0661 
	-63.0623 
	-9.40509 
	-115.342 
	-215.03  
	-239.431 
	-298.25  
	-268.906 
	-259.277 
	-229.958 
	-49.7869 
	13.4066  
	29.1867  
	68.6696  
	-46.6344 
	-172.697 
	-138.2   
	-70.7174 
	-42.7783 
	95.8191  
	190.91   
	68.2778  
	-1.9996  
	-19.1427 
	-183.624 
	-178.815 
	-44.5463 
	-47.7063 
	33.9229  
	61.2745  
	26.4017  
	87.0857  
	88.1655  
	63.8765  
	-21.5638 
	-109.843 
	-3.77891 
	110.939  
	112.852  
	105.078  
	-163.836 
	-445.683 
	-245.861 
	-62.7082 
	-102.25  
	56.4116  
	262.897  
	142.178  
	76.8107  
	293.356  
	360.781  
	308.099  
	231.101  
	147.37   
	147.263  
	38.299   
	-288.028 
	-613.057 
	-630.853 
	-424.95  
	-142.066 
	106.82   
	112.106  
	29.4043  
	24.8366  
	-21.6752 
	-160.078 
	-260.536 
	-301.363 
	-294.063 
	-229.97  
	-253.659 
	-342.184 
	-379.857 
	-356.311 
	-302.15  
	-230.749 
	-157.36  
	-117.965 
	-98.6932 
	-189.12  
	-313.719 
	-302.469 
	-217.993 
	-172.581 
	-165.255 
	-58.1354 
	-9.68272 
	-97.0332 
	-62.1418 
	-44.6339 
	-33.4518 
	105.543  
	49.3419  
	-33.0953 
	56.6285  
	173.282  
	369.206  
	381.486  
	347.766  
	426.015  
	335.721  
	282.672  
	215.137  
	112.801  
	263.813  
	379.051  
	336.848  
	388.312  
	226.965  
	-161.622 
	-241.637 
	-165.277 
	-170.185 
	-127.155 
	-178.429 
	-313.878 
	-220.6   
	-134.523 
	-282.762 
	-322.597 
	-343.258 
	-566.618 
	-678.651 
	-561.1   
	-396.622 
	-179.794 
	8.47777  
	65.732   
	33.168   
	-63.8734 
	-89.8758 
	-27.2897 
	-59.6052 
	-126.324 
	-70.4746 
	26.9298  
	109.296  
	107.017  
	77.0583  
	100.548  
	32.2831  
	49.5642  
	116.693  
	-54.2404 
	-233.681 
	-200.946 
	-21.269  
	-19.6923 
	-199.125 
	-224.36  
	-252.572 
	-261.413 
	-210.748 
	-230.547 
	-180.184 
	-160.697 
	-185.98  
	-144.165 
	-155.333 
	-200.358 
	-165.98  
	-146.617 
	-161.659 
	-158.598 
	-190.958 
	-154.987 
	-76.3756 
	-106.574 
	-137.569 
	-59.9905 
	-4.85116 
	-0.524804
	14.6718  
	46.3281  
	106.316  
	41.0646  
	63.9392  
	75.502   
	-135.842 
	-49.3152 
	21.6825  
	-21.6769 
	167.907  
	195.786  
	84.6332  
	-33.1644 
	-35.4434 
	86.2616  
	68.0008  
	76.6047  
	192.22   
	307.642  
	311.672  
	173.202  
	77.5798  
	137.021  
	110.152  
	143.994  
	377.755  
	214.257  
	104.435  
	144.215  
	-218.215 
	-380.395 
	-347.359 
	-298.776 
	-107.475 
	-38.8312 
	-7.48866 
	22.0386  
	35.6805  
	165.52   
	288.188  
	299.035  
	77.8299  
	-177.252 
	-202.675 
	-295.833 
	-267.908 
	10.7524  
	-47.7332 
	-229.21  
	-212.631 
	-380.748 
	-417.764 
	-142.626 
	-99.4529 
	-158.633 
	-104.649 
	-88.2322 
	-223.314 
	-464.853 
	-519.539 
	-549.366 
	-596.161 
	-497.619 
	-426.777 
	-315.578 
	-200.638 
	-80.9634 
	34.5345  
	-2.3367  
	0.83854  
	61.4731  
	65.2842  
	82.4056  
	96.1044  
	51.9462  
	-11.2758 
	-56.5243 
	-113.249 
	-161.257 
	-150.099 
	-95.2529 
	-45.5595 
	-36.9855 
	20.1349  
	103.856  
	131.222  
	298.126  
	439.057  
	355.007  
	371.143  
	354.077  
	285.896  
	525.438  
	589.401  
	255.937  
	11.3004  
	-181.996 
	-281.534 
	-191.464 
	-209.738 
	-221.538 
	-110.312 
	-10.3199 
	80.4099  
	99.2346  
	-3.46808 
	-150.564 
	-127.035 
	-55.4278 
	-191.621 
	-270.921 
	-133.966 
	167.638  
	534.675  
	702.332  
	717.155  
	527.26   
	92.0566  
	-114.563 
	-146.811 
	-208.512 
	-223.364 
	-282.652 
	-197.263 
	-56.374  
	-161.979 
	-283.897 
	-334.168 
	-405.467 
	-454.266 
	-579.121 
	-673.74  
	-646.006 
	-607.592 
	-493.004 
	-411.535 
	-303.073 
	-112.739 
	-98.0871 
	-98.8779 
	11.0927  
	22.7794  
	-8.89869 
	96.4874  
	139.966  
	39.7472  
	1.62222  
	-28.9428 
	-67.6944 
	-99.6898 
	-183.188 
	-171.379 
	-58.0761 
	-70.9427 
	-153.104 
	-94.3261 
	-23.0727 
	-49.9814 
	5.45615  
	153.134  
	169.211  
	127.696  
	183.872  
	174.891  
	89.1924  
	20.4611  
	-58.2143 
	-104.13  
	-10.3945 
	132.264  
	122.478  
	126.223  
	170.133  
	142.396  
	161.836  
	245.485  
	485.176  
	678.927  
	543.399  
	154.386  
	-244.772 
	-202.016 
	93.9107  
	138.15   
	93.766   
	204.008  
	254.966  
	174.898  
	116.273  
	-123.344 
	-325.63  
	-256.38  
	-231.067 
	-303.463 
	-284.476 
	-170.814 
	-227.567 
	-257.285 
	-292.07  
	-498.185 
	-390.388 
	-132.961 
	-89.8554 
	-69.1976 
	10.716   
	137.749  
	288.592  
	348.172  
	316.222  
	222.623  
	103.687  
	-45.4404 
	-119.113 
	-86.034  
	-252.78  
	-469.115 
	-494.33  
	-417.444 
	-302.458 
	-88.3933 
	111.512  
	-29.5813 
	-110.748 
	-21.8775 
	-180.646 
	-251.113 
	-193.492 
	-223.25  
	-214.073 
	-238.499 
	-248.099 
	-152.238 
	-96.2415 
	-134.866 
	-142.222 
	-79.6592 
	-49.4349 
	-2.55967 
	104.912  
	165.643  
	173.77   
	111.88   
	-32.0676 
	-77.9843 
	29.3858  
	67.1121  
	81.3519  
	176.177  
	160.698  
	121.931  
	97.2124  
	24.7584  
	65.3473  
	161.666  
	208.363  
	298.022  
	338.096  
	129.232  
	30.717   
	256.496  
	301.404  
	85.4874  
	17.1533  
	1.29114  
	-110.861 
	-109.628 
	-108.421 
	-119.047 
	-17.3554 
	-28.1035 
	-214.666 
	-269.142 
	-77.4817 
	112.28   
	162.217  
	63.737   
	-56.1676 
	-77.7942 
	-119.82  
	-195.621 
	-180.715 
	-132.812 
	-119.707 
	-145.361 
	-215.113 
	-278.417 
	-335.48  
	-354.409 
	-357.375 
	-299.505 
	-87.2988 
	94.6035  
	134.744  
	84.6587  
	51.376   
	27.2052  
	-76.5812 
	-123.146 
	-203.746 
	-340.561 
	-310.699 
	-284.356 
	-227.55  
	-39.9685 
	-15.7704 
	-6.59403 
	142.545  
	226.328  
	301.587  
	339.971  
	274.621  
	143.318  
	-28.0063 
	-134.274 
	-178.218 
	-202.931 
	-239.623 
	-136.314 
	90.6817  
	100.072  
	139.519  
	318.847  
	236.902  
	157.502  
	134.594  
	78.3143  
	141.949  
	75.143   
	78.7332  
	161.88   
	-22.7969 
	-221.98  
	-163.779 
	-30.3685 
	-44.8728 
	-83.8626 
	-72.7286 
	-84.8602 
	-155.8   
	-170.556 
	-9.52163 
	73.5966  
	70.97    
	124.887  
	-39.4028 
	-128.21  
	-98.6498 
	-342.326 
	-347.924 
	-123.066 
	-62.8077 
	-61.4698 
	-90.3305 
	-46.0368 
	37.004   
	92.9361  
	143.494  
	86.978   
	90.1069  
	131.085  
	42.8347  
	-2.14996 
	-87.2219 
	-204.72  
	-229.067 
	-214.683 
	-95.8111 
	23.9588  
	127.21   
	174.655  
	-6.19289 
	-91.4279 
	28.4313  
	108.014  
	86.6638  
	13.9615  
	130.793  
	246.233  
	97.6663  
	78.6767  
	200.606  
	162.812  
	51.9401  
	-40.2828 
	-98.16   
	-135.879 
	-108.427 
	-92.246  
	-212.344 
	-243.75  
	-215.607 
	-361.986 
	-336.327 
	-87.9287 
	-75.2016 
	-193.113 
	-296.02  
	-376.758 
	-318.997 
	-216.27  
	-191.545 
	-280.674 
	-325.952 
	-170.332 
	9.14124  
	20.5146  
	104.771  
	359.802  
	394.125  
	284.159  
	224.865  
	191.806  
	221.665  
	259.273  
	254.613  
	71.3468  
	93.0423  
	240.677  
	78.0957  
	12.239   
	70.8032  
	111.037  
	161.22   
	76.7178  
	-110.653 
	-138.518 
	-64.4253 
	-83.963  
	-174.271 
	-316.923 
	-376.889 
	-233.051 
	141.205  
	387.776  
	402.095  
	390.19   
	277.841  
	127.483  
	-60.9585 
	-153.652 
	-161.826 
	-187.595 
	-155.435 
	-178.704 
	-160.318 
	-52.3777 
	86.5549  
	180.273  
	192.738  
	241.986  
	99.7452  
	-178.403 
	-342.292 
	-463.504 
	-429.386 
	-320.841 
	-234.673 
	-108.372 
	5.2991   
	106.61   
	95.9936  
	-1.58081 
	-54.7747 
	-79.1845 
	-99.1334 
	-109.191 
	-83.5451 
	-49.3865 
	-71.4405 
	-157.528 
	-199.916 
	-91.1693 
	6.88379  
	-57.6435 
	-121.513 
	-175.48  
	-238.396 
	-186.798 
	-121.176 
	-66.7748 
	58.5504  
	238.373  
	259.802  
	109.064  
	83.6621  
	90.0656  
	57.6509  
	104.275  
	202.716  
	206.139  
	77.1366  
	40.3802  
	12.6447  
	87.1843  
	199.658  
	-132.632 
	-360.219 
	-255.512 
	-182.906 
	21.6895  
	133.189  
	117.279  
	136.644  
	261.878  
	340.168  
	29.2478  
	-142.74  
	-83.2737 
	-56.9695 
	-14.6656 
	-63.2981 
	53.8738  
	202.582  
	152.491  
	169.351  
	277.157  
	308.611  
	177.074  
	53.5898  
	9.26783  
	-147.974 
	-300.164 
	-231.864 
	-132.643 
	-175.248 
	-158.454 
	-29.1511 
	-20.3642 
	-168.282 
	-285.213 
	-157.012 
	110.171  
	63.4737  
	-52.6742 
	8.52469  
	-55.0057 
	-81.6834 
	-116.287 
	-176.85  
	-66.83   
	-52.728  
	-158.852 
	-136.064 
	-120.343 
	-179.533 
	-94.3381 
	-15.0601 
	19.3352  
	60.0806  
	-54.0608 
	-91.7162 
	-69.6158 
	-121.145 
	-45.6701 
	-6.5339  
	-90.1097 
	-121.38  
	-111.029 
	-59.1837 
	-7.19239 
	-5.73976 
	103.714  
	233.303  
	185.52   
	178.463  
	211.689  
	207.07   
	242.852  
	194.051  
	90.6816  
	-78.5925 
	-192.107 
	-51.1301 
	179.584  
	345.299  
	431.261  
	648.236  
	772.896  
	447.599  
	62.7186  
	-91.2584 
	-41.2067 
	-25.9578 
	-163.426 
	-95.0177 
	42.5562  
	81.0626  
	199.402  
	111.072  
	-150.829 
	-271.598 
	-251.817 
	-171.242 
	-145.967 
	-127.277 
	-99.4507 
	-54.9691 
	17.21    
	-0.310779
	-28.8965 
	-105.43  
	-301.043 
	-299.597 
	-131.49  
	-165.756 
	-225.982 
	-48.7939 
	19.9345  
	-188.817 
	-359.955 
	-339.203 
	-245.853 
	-322.489 
	-461.252 
	-399.381 
	-243.793 
	-176.941 
	-151.217 
	-83.71   
	0.938373 
	147.039  
	194.52   
	63.7827  
	-39.658  
	-94.1217 
	-105.018 
	-84.1362 
	12.3914  
	156.446  
	144.517  
	53.2899  
	55.2139  
	118.6    
	179.622  
	184.65   
	195.302  
	152.445  
	-10.4335 
	-38.1709 
	-119.711 
	-285.76  
	-234.609 
	-105.431 
	15.1373  
	100.258  
	157.973  
	151.358  
	158.195  
	221.826  
	101.623  
	-88.355  
	-59.6753 
	101.638  
	82.3966  
	-37.9822 
	-30.1055 
	-4.97472 
	-7.40445 
	-4.60991 
	77.621   
	224.797  
	108.491  
	-106.574 
	-108.544 
	-60.0697 
	-31.9067 
	-26.8952 
	-11.7708 
	94.7183  
	245.179  
	265.888  
	254.728  
	323.128  
	356.423  
	419.338  
	292.08   
	-73.2384 
	-222.593 
	-171.196 
	-112.628 
	-41.9496 
	-94.726  
	-200.722 
	-176.977 
	-111.495 
	-13.1836 
	112.821  
	145.853  
	66.5026  
	-41.2604 
	-231.165 
	-475.786 
	-489.036 
	-406.111 
	-377.564 
	-285.996 
	-218.82  
	-192.529 
	-85.4553 
	65.4912  
	101.686  
	161.789  
	213.291  
	77.8842  
	-103.269 
	-278.738 
	-253.554 
	-17.3849 
	68.8459  
	-39.0924 
	-141.534 
	-105.169 
	-60.4568 
	-73.075  
	-47.3266 
	-83.3606 
	-153.986 
	-103.865 
	34.0669  
	108.298  
	151.363  
	200.909  
	79.502   
	25.6186  
	86.3772  
	-8.56922 
	-81.5067 
	-110.866 
	-42.2404 
	103.698  
	-28.5509 
	-232.431 
	-200.162 
	-143.978 
	-174.44  
	-181.282 
	-10.9099 
	221.07   
	280.021  
	395.789  
	570.683  
	602.34   
	550.642  
	532.458  
	587.578  
	418.343  
	212.986  
	293.368  
	276.473  
	202.047  
	170.86   
	-11.5899 
	-72.9603 
	69.938   
	178.005  
	134.692  
	-110.228 
	-381.151 
	-438.264 
	-459.951 
	-550.306 
	-531.878 
	-498.533 
	-363.492 
	-238.68  
	-273.427 
	-200.202 
	-98.8696 
	-22.2417 
	-24.5413 
	26.3603  
	201.56   
	211.303  
	164.293  
	62.3459  
	-126.168 
	-220.324 
	-208.445 
	-176.002 
	-167.133 
	-209.844 
	-305.964 
	-331.168 
	-295.226 
	-290.401 
	-297.683 
	-273.682 
	-174.944 
	-44.9998 
	27.8191  
	62.6703  
	220.216  
	309.072  
	242.073  
	357.181  
	409.997  
	425.054  
	647.797  
	749.336  
	659.311  
	367.668  
	110.479  
	42.3656  
	-34.7412 
	-94.1655 
	-148.941 
	-121.318 
	-88.7711 
	40.3517  
	162.158  
	-18.8612 
	-105.097 
	-197.316 
	-391.707 
	-335.479 
	-220.477 
	-164.621 
	-74.5756 
	54.4229  
	151.616  
	94.0602  
	102.347  
	237.622  
	191.245  
	103.809  
	129.98   
	85.3919  
	74.816   
	209.021  
	310.484  
	174.26   
	-81.1745 
	-101.144 
	-70.9036 
	-215.58  
	-256.516 
	-183.689 
	-186.391 
	-207.943 
	-189.063 
	-166.145 
	-132.757 
	-55.5045 
	29.3346  
	42.4505  
	34.1019  
	-2.42697 
	-146.378 
	-258.448 
	-285.23  
	-199.616 
	-12.819  
	78.1594  
	131.502  
	176.841  
	157.824  
	158.258  
	176.253  
	96.6499  
	-105.807 
	-131.95  
	-55.6502 
	-184.306 
	-283.376 
	-238.011 
	-197.805 
	-227.702 
	-233.419 
	-114.658 
	-5.0968  
	5.88878  
	46.6839  
	148.38   
	130.514  
	108.463  
	119.356  
	102.448  
	141.109  
	-34.7478 
	-292.252 
	-323.922 
	-257.87  
	-133.062 
	29.5596  
	263.414  
	462.827  
	512.956  
	545.161  
	532.23   
	381.832  
	73.4923  
	-89.2858 
	-7.82212 
	-71.4924 
	-194.093 
	-193.337 
	-30.0407 
	194.072  
	148.778  
	126.204  
	221.652  
	205.332  
	304.411  
	301.594  
	73.7736  
	-4.31928 
	56.4958  
	68.7799  
	76.4554  
	12.6263  
	-181.745 
	-101.4   
	4.892    
	-218.076 
	-206.591 
	-58.1725 
	-64.6241 
	-0.841601
	26.917   
	-46.5752 
	-154.418 
	-230.056 
	-195.792 
	-199.033 
	-273.855 
	-335.609 
	-389.954 
	-370.072 
	-290.006 
	-224.799 
	-175.715 
	-90.9663 
	57.8442  
	67.7111  
	-33.2004 
	-33.8207 
	-51.1234 
	-107.59  
	-113.582 
	-106.124 
	-118.607 
	-155.214 
	-144.58  
	-111.233 
	-67.0221 
	-17.8698 
	-108.498 
	-95.561  
	35.8674  
	-19.1776 
	-18.2878 
	134.752  
	264.453  
	187.562  
	18.837   
	152.611  
	273.059  
	246.617  
	369.839  
	351.897  
	215.229  
	286.753  
	341.556  
	238.274  
	122.48   
	245.229  
	405.698  
	187.341  
	146.718  
	256.909  
	34.3441  
	-256.828 
	-532.036 
	-420.2   
	-60.1277 
	28.5252  
	118.206  
	201.303  
	155.703  
	25.8927  
	-136.04  
	-147.979 
	-29.4519 
	-44.6896 
	-225.563 
	-280.188 
	-186.315 
	-39.6666 
	129.048  
	163.05   
	186.207  
	380.301  
	344.046  
	11.3382  
	-231.277 
	-271.623 
	-109.739 
	-50.5549 
	-153.268 
	-166.077 
	-131.177 
	-112.1   
	-122.572 
	-111.17  
	-112.619 
	-166.092 
	-149.071 
	-128.423 
	-154.548 
	-158.086 
	-125.884 
	-131.062 
	-255.112 
	-260.046 
	-134.649 
	-63.1    
	45.925   
	-38.1887 
	-234.172 
	-139.069 
	43.0773  
	110.34   
	36.6659  
	-74.7971 
	-32.4596 
	-43.8134 
	-176.418 
	-74.8872 
	123.578  
	117.466  
	56.926   
	53.1356  
	135.575  
	197.516  
	103.361  
	88.8237  
	184.342  
	192.41   
	234.317  
	207.996  
	61.014   
	52.1914  
	113.461  
	-13.9767 
	-149.93  
	35.8461  
	297.958  
	414.961  
	317.859  
	218.256  
	299.067  
	202.037  
	88.4083  
	45.3134  
	6.6657   
	138.828  
	261.668  
	186.929  
	-49.895  
	-12.2387 
	188.718  
	154.605  
	89.604   
	102.338  
	125.048  
	1.83287  
	-162.957 
	-270.604 
	-322.267 
	-245.071 
	-286.879 
	-465.686 
	-507.517 
	-381.824 
	-199.025 
	16.1133  
	218.504  
	204.872  
	-32.2533 
	-197.149 
	-235.95  
	-259.311 
	-295.799 
	-247.093 
	-35.8398 
	0.106953 
	-5.82027 
	105.682  
	-46.2781 
	-158.536 
	-135.115 
	-184.593 
	-199.148 
	-235.994 
	-213.548 
	-129.777 
	-137.118 
	-228.155 
	-231.847 
	-164.091 
	-134.512 
	-56.9634 
	4.04841  
	65.2623  
	176.899  
	225.421  
	213.069  
	185.666  
	183.975  
	259.753  
	323.606  
	275.678  
	264.207  
	373.395  
	369.618  
	70.6432  
	-60.1529 
	168.505  
	126.82   
	-60.0108 
	-48.0436 
	70.0265  
	273.657  
	366.437  
	357.551  
	355.414  
	360.988  
	306.037  
	114.942  
