Date: 09.03.26
Time: 16:46:28
Client: 
Session: 
Device: Neurobit Optima+ 4 USB
Signals: 1
Channel	A
Min	-800
Max	800
Unit	uV
SR	1000
Label	EMG
Sensor	AgAgCl
	-36.1084 
	62.685   
	118.398  
	53.0019  
	179.492  
	100.468  
	-245.319 
	-271.369 
	-129.146 
	77.812   
	172.986  
	32.5085  
	-192.902 
	-210.783 
	-79.2346 
	-231.749 
	-363.853 
	-336.288 
	-313.654 
	-317.77  
	-366.538 
	-329.578 
	-342.152 
	-354.361 
	-244.934 
	-190.69  
	-192.574 
	-176.113 
	-181.708 
	-170.951 
	-83.5525 
	-24.8321 
	14.1672  
	108.607  
	119.842  
	3.12415  
	-105.617 
	-76.5146 
	31.4869  
	-7.32984 
	-67.3668 
	52.5934  
	177.181  
	220.117  
	175.335  
	-10.2457 
	-137.401 
	-66.7741 
	-6.06089 
	-143.566 
	-174.199 
	10.7208  
	73.9954  
	100.54   
	191.378  
	331.387  
	246.248  
	-119.253 
	-100.247 
	130.023  
	-108.206 
	-475.185 
	-344.748 
	-44.2348 
	2.3867   
	-22.3747 
	-85.9688 
	-147.419 
	-76.9188 
	-0.332287
	-133.287 
	-286.87  
	-281.695 
	-313.019 
	-186.498 
	51.2028  
	-12.5056 
	-212.928 
	-271.87  
	-185.842 
	47.8572  
	249.091  
	304.526  
	268.267  
	195.93   
	176.536  
	-37.3895 
	-279.547 
	-219.774 
	-54.4515 
	111.583  
	86.2259  
	-44.38   
	-52.3941 
	-142.933 
	-131.346 
	55.4935  
	-97.6894 
	-478.737 
	-547.106 
	-347.507 
	-183.017 
	-147.525 
	-157.052 
	-68.6551 
	-135.382 
	-369.988 
	-392.462 
	-354.038 
	-343.687 
	-307.746 
	-320.434 
	-293.61  
	-214.103 
	-150.258 
	-63.2158 
	36.2725  
	8.76421  
	26.0166  
	184.973  
	378.728  
	559.801  
	484.792  
	318.726  
	304.393  
	347.48   
	338.239  
	271.453  
	205.597  
	80.7668  
	-39.926  
	-76.4374 
	-238.104 
	-478.37  
	-398.734 
	-199.927 
	-66.5702 
	30.6805  
	-117.333 
	-269.069 
	-225.194 
	-180.378 
	-146.476 
	-149.395 
	-177.822 
	-61.9704 
	-187.663 
	-466.318 
	-269.116 
	23.5965  
	130.165  
	105.626  
	71.719   
	217.881  
	212.275  
	91.798   
	87.4785  
	19.3845  
	-120.51  
	-130.308 
	-77.0849 
	-164.942 
	-333.052 
	-427.988 
	-501.013 
	-554.802 
	-337.432 
	-58.0065 
	37.6914  
	152.551  
	223.705  
	251.479  
	283.348  
	333.157  
	344.285  
	119.751  
	-41.1144 
	35.9413  
	-4.34729 
	-196.37  
	-290.515 
	-195.696 
	-86.0552 
	-125.163 
	-94.2183 
	-31.0387 
	15.2409  
	7.16313  
	-272.665 
	-410.301 
	-340.867 
	-242.685 
	-79.9782 
	-95.1206 
	-135.065 
	-136.078 
	-141.944 
	-99.2604 
	-147.124 
	-179.238 
	-138.63  
	-24.0968 
	121.685  
	225.191  
	153.423  
	-24.9213 
	18.8833  
	62.2393  
	58.7561  
	112.671  
	50.9449  
	8.62794  
	-0.31545 
	-104.05  
	-152.197 
	-212.058 
	-322.004 
	-255.956 
	-183.154 
	-137.392 
	31.6771  
	148.28   
	232.881  
	228.686  
	86.177   
	74.502   
	109.094  
	150.939  
	257.073  
	206.733  
	67.6556  
	47.8932  
	39.3393  
	-2.32164 
	-4.85393 
	42.3275  
	164.91   
	209.455  
	40.9323  
	-105.613 
	-77.3156 
	-91.8288 
	-153.024 
	-63.3664 
	139.516  
	166.742  
	-30.8719 
	-159.867 
	-191.493 
	-164.473 
	-38.11   
	-10.7445 
	-148.753 
	-237.305 
	-193.393 
	-58.4629 
	-73.2069 
	-239.44  
	-135.888 
	27.9346  
	-73.5848 
	-225.207 
	-292.687 
	-263.11  
	-242.126 
	-255.67  
	-225.163 
	-209.909 
	-308.248 
	-411.743 
	-367.454 
	-337.516 
	-297.44  
	-180.656 
	-130.704 
	-57.7476 
	29.0227  
	174.631  
	245.378  
	-49.1678 
	-173.274 
	31.0591  
	93.344   
	-17.9088 
	-39.5099 
	78.1295  
	159.278  
	48.3152  
	-196.272 
	-187.267 
	-78.6426 
	0.654642 
	116.755  
	91.5827  
	138.241  
	234.154  
	185.223  
	212.851  
	411.09   
	460.927  
	375.202  
	378.568  
	232.654  
	-131.87  
	-359.165 
	-250.265 
	-82.3488 
	24.9807  
	241.99   
	301.048  
	214.551  
	172.364  
	108.525  
	158.347  
	-32.1534 
	-390.91  
	-478.688 
	-496.884 
	-344.357 
	-201.581 
	-329.132 
	-305.852 
	-42.1208 
	104.524  
	118.791  
	3.39284  
	-238.67  
	-311.54  
	-262.488 
	-236.212 
	-213.888 
	-165.093 
	8.56584  
	160.286  
	25.9555  
	-135.587 
	-53.5235 
	38.5073  
	39.7762  
	18.9689  
	-60.2646 
	-157.276 
	-110.295 
	-18.2551 
	-107.126 
	-205.513 
	-165.612 
	-174.617 
	-280.072 
	-301.276 
	-222.535 
	-193.237 
	-142.139 
	-110.724 
	-153.102 
	-181.814 
	-196.204 
	-151.515 
	-180.914 
	-113.766 
	-13.3771 
	-113.062 
	-107.727 
	-41.5952 
	30.1929  
	147.969  
	228.181  
	300.046  
	328.92   
	251.956  
	206.48   
	207.7    
	23.7418  
	-135.04  
	-55.6852 
	110.45   
	291.247  
	344.773  
	278.682  
	375.331  
	442.138  
	286.665  
	40.2875  
	-181.893 
	-165.087 
	-147.824 
	-165.18  
	9.77163  
	152.368  
	96.9811  
	-72.061  
	3.90665  
	136.099  
	-136.777 
	-318.11  
	-185.091 
	-178.133 
	-229.701 
	-236.463 
	-269.702 
	-269.413 
	-383.128 
	-504.849 
	-408.553 
	-254.339 
	-209.492 
	-218.244 
	-130.537 
	-90.8504 
	-122.631 
	-85.3747 
	-34.2852 
	-20.6836 
	-69.134  
	-136.469 
	-182.433 
	-204.553 
	-190.167 
	-62.1705 
	35.0962  
	63.592   
	118.132  
	111.105  
	199.215  
	192.547  
	20.8124  
	23.7245  
	138.927  
	168.959  
	-35.7806 
	-225.085 
	-190.855 
	-120.932 
	-20.6032 
	56.2919  
	-20.9387 
	-106.561 
	-61.3583 
	48.7366  
	43.7909  
	-30.5136 
	-47.4322 
	-92.1248 
	-31.9979 
	122.36   
	243.012  
	291.384  
	242.98   
	188.984  
	140.455  
	130.58   
	102.26   
	0.990646 
	-77.3065 
	45.2091  
	272.034  
	225.617  
	14.941   
	-126.946 
	-205.538 
	-162.271 
	-197.674 
	-304.11  
	-215.655 
	-152.783 
	-144.349 
	-10.1211 
	116.488  
	45.4119  
	-189.95  
	-254.448 
	-240.504 
	-297.687 
	-141.511 
	-7.82492 
	-30.0304 
	-16.3636 
	20.3758  
	165.147  
	168.86   
	23.7079  
	-20.9968 
	-160.937 
	-375.983 
	-434.617 
	-264.5   
	-9.77339 
	50.808   
	-43.7787 
	-24.9638 
	40.3293  
	42.6924  
	79.8326  
	111.464  
	-18.8483 
	-200.819 
	-205.245 
	-141.417 
	-170.591 
	-202.026 
	-131.96  
	-100.564 
	-79.3739 
	-15.3197 
	7.44161  
	60.9903  
	18.0935  
	-20.7468 
	2.82967  
	-103.935 
	-164.497 
	-113.356 
	-47.6772 
	-33.8308 
	-7.03443 
	174.814  
	338.344  
	222.727  
	24.0806  
	64.0609  
	190.457  
	147.023  
	15.4732  
	-26.0939 
	-38.3622 
	-45.1682 
	-3.0085  
	2.48516  
	-38.1062 
	-54.2301 
	-36.0297 
	-71.841  
	-173.66  
	-143.527 
	-47.0581 
	-30.2372 
	-68.9863 
	-236.252 
	-259.686 
	-133.655 
	-119.476 
	-53.0048 
	20.2682  
	-32.6742 
	-36.2224 
	115.802  
	153.731  
	-18.1006 
	-139.29  
	-23.9993 
	157.954  
	130.924  
	157.898  
	107.159  
	-145.831 
	-6.28367 
	192.101  
	82.7593  
	13.1863  
	-17.8395 
	57.0014  
	119.579  
	55.9369  
	-14.0733 
	-68.9998 
	-33.8442 
	-79.0502 
	-51.8028 
	-66.3398 
	-293.515 
	-195.519 
	-15.9986 
	49.0337  
	126.602  
	-71.3013 
	-248.344 
	-178.312 
	-42.9227 
	5.76953  
	13.076   
	30.0763  
	-149.45  
	-136.168 
	-18.1998 
	-92.4362 
	-22.0889 
	-33.9989 
	-101.596 
	-30.8652 
	-86.3942 
	-229.26  
	-234.292 
	-102.822 
	-14.1614 
	-67.8926 
	-172.768 
	-194.029 
	-122.319 
	-149.236 
	-149.345 
	40.3579  
	80.5514  
	-4.74959 
	-36.3027 
	-37.844  
	36.6688  
	68.7715  
	26.8356  
	-48.2663 
	-149.423 
	-106.286 
	1.99127  
	-58.6974 
	-106.052 
	-47.8499 
	-92.932  
	-84.8053 
	85.287   
	152.787  
	150.401  
	195.071  
	253.876  
	289.496  
	168.288  
	-114.893 
	-169.556 
	10.5257  
	3.40805  
	-45.3805 
	95.3195  
	310.391  
	191.607  
	-95.764  
	63.0316  
	290.408  
	292.519  
	231.6    
	175.918  
	189.026  
	27.0299  
	-188.589 
	-211.43  
	-106.491 
	-19.6777 
	-35.324  
	-66.6487 
	-127.574 
	-183.774 
	-206.429 
	-173.599 
	-170.809 
	-234.294 
	-301.123 
	-347.044 
	-244.509 
	-140.41  
	-101.413 
	-44.9026 
	-69.5017 
	-164.886 
	-252.676 
	-304.738 
	-268.382 
	-173.97  
	-80.249  
	69.4438  
	165.755  
	141.076  
	82.4423  
	-17.8383 
	-55.2206 
	-20.3105 
	-78.2497 
	-150.275 
	-97.0147 
	-123.052 
	-223.604 
	-264.086 
	-255.442 
	-46.4658 
	66.6743  
	3.9368   
	79.688   
	114.978  
	109.834  
	140.897  
	133.484  
	255.09   
	293.44   
	250.715  
	383.613  
	234.031  
	-32.5166 
	18.1806  
	147.565  
	85.285   
	-101.98  
	-106.129 
	14.8069  
	-39.3448 
	-350.671 
	-387.085 
	-169.982 
	-128.563 
	-37.2685 
	-103.322 
	-322.403 
	-276.111 
	-160.879 
	-130.307 
	-59.8638 
	-78.1418 
	-91.1901 
	25.6442  
	98.1592  
	98.3157  
	-32.9715 
	-66.5934 
	111.709  
	189.013  
	142.972  
	154.776  
	243.39   
	329.568  
	258.286  
	63.8416  
	51.0623  
	230.509  
	326.907  
	193.213  
	139.92   
	33.9698  
	-299.325 
	-363.299 
	-253.05  
	-173.18  
	-125.73  
	-184.373 
	-212.466 
	-148.112 
	-40.1216 
	-20.5819 
	-61.6177 
	-40.8911 
	-123.914 
	-317.102 
	-254.697 
	-35.3562 
	-83.3399 
	-191.26  
	-194.289 
	-261.023 
	-250.677 
	-147.738 
	-21.455  
	149.933  
	188.066  
	189.15   
	164.574  
	-26.1087 
	-137.161 
	-134.805 
	-157.307 
	-306.211 
	-434.565 
	-427.282 
	-354.938 
	-209.435 
	-136.452 
	-59.9484 
	-1.85785 
	73.6603  
	209.331  
	236.62   
	294.566  
	289.474  
	233.512  
	264.049  
	136.376  
	-100.816 
	-204.922 
	-133.484 
	0.308196 
	10.7226  
	-39.6164 
	5.77689  
	41.6452  
	73.7873  
	196.457  
	181.745  
	104.302  
	225.158  
	204.172  
	-14.8539 
	-115.805 
	-170.881 
	-152.705 
	124.446  
	399.342  
	136.557  
	-240.591 
	-71.742  
	109.838  
	109.582  
	177.72   
	42.0875  
	-28.8235 
	67.8194  
	42.3493  
	100.93   
	203.353  
	172.578  
	119.763  
	109.342  
	-103.895 
	-435.442 
	-418.865 
	-171.726 
	-71.1303 
	-120.169 
	-116.235 
	-69.2091 
	-165.009 
	-227.212 
	-174.245 
	-167.551 
	-209.578 
	-327.357 
	-354.717 
	-348.755 
	-361.269 
	-264.097 
	-251.087 
	-219.783 
	-127.171 
	-151.395 
	-162.452 
	-15.9943 
	138.504  
	132.072  
	97.4808  
	50.6857  
	9.80834  
	81.9874  
	79.2718  
	15.73    
	-6.71503 
	-129.56  
	-158.439 
	-91.6258 
	-222.75  
	-328.017 
	-274.397 
	-256.489 
	-216.76  
	-41.7601 
	34.7114  
	91.8917  
	258.822  
	118.939  
	-76.3162 
	-35.0246 
	15.287   
	165.97   
	210.22   
	213.434  
	458.04   
	442.834  
	273.165  
	302.48   
	247.128  
	224.71   
	245.311  
	188.506  
	180.418  
	47.8786  
	-162.194 
	-185.231 
	-133.026 
	-140.288 
	-70.2162 
	49.6274  
	-56.2013 
	-129.952 
	4.00519  
	-32.9792 
	-56.4788 
	76.7297  
	26.9736  
	-98.2277 
	10.8879  
	72.0889  
	-199.593 
	-291.683 
	-159.031 
	-196.586 
	-78.7728 
	164.335  
	247.321  
	186.828  
	37.1539  
	83.6708  
	139.71   
	50.7852  
	-47.0942 
	-265.305 
	-349.052 
	-294.173 
	-267.52  
	-170.159 
	-95.0793 
	16.5426  
	76.0988  
	18.9778  
	-11.2785 
	-66.4542 
	-147.649 
	-228.763 
	-253.967 
	-247.513 
	-249.095 
	-253.235 
	-227.781 
	-234.352 
	-361.329 
	-362.892 
	-273.4   
	-186.053 
	-169.409 
	-347.388 
	-355.514 
	-165.472 
	-52.2783 
	-38.3257 
	-50.6197 
	62.4795  
	178.536  
	149.345  
	211.188  
	326.745  
	302.591  
	264.19   
	304.669  
	396.61   
	373.228  
	171.445  
	131.388  
	295.707  
	172.707  
	-88.8714 
	-48.8733 
	55.7589  
	-84.9363 
	-18.213  
	299.612  
	258.9    
	267.266  
	336.862  
	180.612  
	121.758  
	28.281   
	-180.145 
	-308.444 
	-312.79  
	-301.297 
	-292.607 
	-403.376 
	-536.986 
	-390.067 
	-221.911 
	-141.466 
	-4.24346 
	35.522   
	55.2605  
	94.8894  
	47.2455  
	56.5714  
	-24.0989 
	-325.307 
	-588.166 
	-587.326 
	-388.042 
	-242.11  
	-134.992 
	-37.6853 
	116.366  
	327.154  
	328.44   
	270.16   
	273.456  
	132.229  
	-34.2211 
	-64.0356 
	-206.7   
	-413.61  
	-416.855 
	-388.678 
	-360.871 
	-306.799 
	-275.366 
	-185.454 
	-155.494 
	-165.25  
	-40.934  
	108.099  
	210.265  
	108.353  
	-103.127 
	-39.9058 
	28.8547  
	-22.6405 
	34.3553  
	93.8047  
	87.7497  
	168.172  
	244.175  
	240.154  
	282.019  
	206.68   
	167.777  
	299.587  
	364.074  
	250.335  
	-6.85283 
	-96.4039 
	-30.0004 
	11.0087  
	109.333  
	214.569  
	113.113  
	-118.255 
	-113.422 
	-146.965 
	-399.282 
	-367.626 
	-135.681 
	34.2873  
	239.4    
	353.441  
	312.041  
	147.618  
	-131.62  
	-248.791 
	-98.3168 
	-115.815 
	-364.41  
	-270.183 
	36.9947  
	150.27   
	212.282  
	75.2917  
	-196.835 
	-170.731 
	-103.115 
	-286.341 
	-468.466 
	-497.535 
	-426.351 
	-382.619 
	-454.754 
	-421.139 
	-240.925 
	-213.372 
	-215.019 
	-43.5106 
	45.2817  
	8.8049   
	45.9359  
	67.972   
	26.1839  
	8.96328  
	-32.2257 
	-106.777 
	-113.308 
	-151.949 
	-282.472 
	-264.915 
	-196.047 
	-147.944 
	-9.5877  
	19.3826  
	43.9078  
	27.5318  
	-54.6691 
	6.72862  
	48.2539  
	176.875  
	290.935  
	214.092  
	159.93   
	133.384  
	193.354  
	139.329  
	24.1847  
	168.29   
	144.289  
	127.675  
	478.007  
	710.285  
	686.482  
	625.186  
	516.809  
	195.336  
	-104.481 
	-48.9653 
	6.49468  
	-143.498 
	-151.155 
	-145.187 
	-264.112 
	-354.471 
	-355.096 
	-264.033 
	-373.807 
	-527.547 
	-461.916 
	-421.654 
	-379.394 
	-282.334 
	-357.366 
	-308.447 
	-163.934 
	-349.801 
	-314.946 
	-47.0019 
	46.1874  
	179.129  
	193.938  
	60.983   
	55.7459  
	198.109  
	251.445  
	144.796  
	13.9094  
	-55.1679 
	43.1101  
	80.0788  
	-2.48947 
	-5.65561 
	10.2824  
	19.7511  
	13.6405  
	-110.975 
	-244.892 
	-222.308 
	-188.18  
	-172.41  
	-90.3752 
	21.8232  
	140.81   
	205.181  
	246.089  
	249.161  
	240.252  
	279.484  
	235.273  
	152.631  
	48.6816  
	2.1737   
	76.0989  
	-70.147  
	-260.68  
	-263.871 
	-307.668 
	-185.279 
	-22.6807 
	-87.2742 
	31.2845  
	282.185  
	272.482  
	103.158  
	-13.9671 
	-12.5261 
	66.5733  
	161.597  
	198.294  
	172.822  
	85.8346  
	-82.8206 
	-212.181 
	-248.66  
	-216.483 
	-251.174 
	-272.433 
	-114.524 
	17.6476  
	-104.365 
	-212.27  
	-137.696 
	-238.27  
	-266.016 
	-158.316 
	-269.607 
	-352.663 
	-286.069 
	-158.403 
	51.6339  
	244.275  
	288.182  
	315.176  
	413.756  
	482.637  
	471.458  
	415.299  
	307.489  
	34.5342  
	-88.5837 
	-99.661  
	-264.21  
	-199.271 
	-99.6727 
	-47.4099 
	-4.27037 
	-246.1   
	-397.665 
	-382.94  
	-335.704 
	-290.899 
	-262.959 
	-129.85  
	-31.9919 
	18.4603  
	17.3279  
	-30.4624 
	-94.4315 
	-187.257 
	-138.853 
	-62.0524 
	-121.279 
	-230.42  
	-199.009 
	-23.1644 
	-28.6331 
	-86.8006 
	37.733   
	97.176   
	39.1861  
	51.3321  
	56.7965  
	-5.97115 
	45.2369  
	80.8602  
	-29.8813 
	-7.16568 
	102.754  
	130.878  
	142.169  
	-25.105  
	-178.721 
	-42.8677 
	64.8508  
	59.3869  
	107.838  
	197.418  
	397.638  
	410.084  
	97.6906  
	52.4805  
	130.531  
	-67.6733 
	-256.576 
	-170.602 
	-170.524 
	-296.451 
	-108.398 
	31.3961  
	55.2157  
	160.164  
	211.4    
	233.978  
	187.121  
	109.936  
	-77.8136 
	-95.8626 
	199.23   
	203.465  
	62.8814  
	197.036  
	396.037  
	235.382  
	-123.488 
	-83.3757 
	97.0314  
	56.5788  
	-26.555  
	17.7405  
	151.004  
	193.892  
	96.4986  
	-72.0792 
	-205.411 
	-240.489 
	-260.963 
	-416.183 
	-453.424 
	-232.928 
	-70.8742 
	-63.2038 
	-119.233 
	-147.79  
	-155.389 
	-165.292 
	-91.9778 
	74.0547  
	113.429  
	-25.4239 
	-139.721 
	-190.045 
	-174.198 
	-107.502 
	-74.3714 
	-62.4748 
	-10.8431 
	50.7648  
	48.3031  
	58.8222  
	93.2734  
	52.2426  
	36.5583  
	32.6112  
	25.5738  
	12.2813  
	-97.9406 
	-127.781 
	-99.003  
	-70.2301 
	-0.168542
	13.6371  
	-1.73057 
	-77.2908 
	-100.829 
	-23.8557 
	-78.4711 
	-166.131 
	-148.647 
	-111.902 
	-102.349 
	-77.7406 
	-26.7631 
	43.4604  
	115.649  
	56.2584  
	96.1781  
	219.05   
	70.9002  
	-114.362 
	-204.271 
	-13.221  
	348.377  
	403.234  
	415.792  
	463.278  
	291.301  
	44.8904  
	140.15   
	458.58   
	436.032  
	195.421  
	80.0004  
	185.097  
	292.996  
	77.0459  
	-172.108 
	-246.444 
	-279.908 
	-113.692 
	83.0658  
	-95.0235 
	-273.119 
	-113.403 
	45.523   
	53.9741  
	-53.3751 
	-160.424 
	-97.7785 
	-117.156 
	-345.504 
	-475.271 
	-350.127 
	-192.096 
	-172.587 
	-201.848 
	-212.81  
	-137.065 
	-157.709 
	-168.022 
	25.5205  
	66.2786  
	97.5938  
	155.119  
	6.91931  
	-44.8028 
	-33.5716 
	-119.731 
	-145.067 
	-138.964 
	-109.433 
	-79.3474 
	-95.4667 
	-31.9919 
	-15.1994 
	-62.0747 
	-23.9808 
	-50.2292 
	-82.9893 
	-34.9776 
	-33.0823 
	-29.3369 
	-22.9887 
	-56.5319 
	-62.9621 
	-74.5024 
	-47.9952 
	9.82889  
	-44.85   
	-145.159 
	-128.909 
	-21.492  
	-43.8425 
	97.4644  
	392.022  
	374.697  
	338.38   
	275.204  
	169.437  
	210.168  
	214.821  
	269.15   
	414.915  
	489.892  
	586.533  
	642.6    
	375.916  
	331.84   
	301.263  
	-352.473 
	-506.326 
	-20.7947 
	172.836  
	195.145  
	116.312  
	-105.574 
	-192.646 
	-60.449  
	44.2538  
	11.7059  
	96.1744  
	113.75   
	-255.452 
	-447.538 
	-313.349 
	-333.271 
	-222.127 
	-30.1654 
	-44.6944 
	48.954   
	134.23   
	134.904  
	102.746  
	-148.992 
	-254.251 
	-113.768 
	-85.1863 
	-107.49  
	-239.755 
	-462.311 
	-514.148 
	-350.539 
	-187.873 
	-176.031 
	-133.186 
	-48.2732 
	40.2841  
	55.4526  
	21.4201  
	105.504  
	151.844  
	101.239  
	72.0958  
	116.205  
	161.719  
	224.856  
	257.994  
	193.725  
	202.336  
	270.323  
	285.96   
	262.908  
	251.412  
	195.326  
	57.9781  
	-119.332 
	-249.014 
	-275.96  
	-290.148 
	-281.918 
	-184.846 
	-20.9804 
	123.235  
	195.029  
	182.905  
	87.7278  
	4.19385  
	-84.5487 
	-176.417 
	-210.183 
	-269.959 
	-222.425 
	-205.346 
	-224.984 
	110.597  
	254.808  
	43.1745  
	-72.8375 
	-211.656 
	-276.308 
	-135.002 
	-3.93834 
	14.1916  
	194.268  
	380.665  
	189.599  
	-122.086 
	-70.4147 
	235.801  
	278.431  
	154.512  
	103.366  
	160.026  
	185.409  
	127.082  
	143.038  
	160.695  
	-3.36899 
	-231.492 
	-165.761 
	-33.4197 
	82.1105  
	263.23   
	161.243  
	-11.1401 
	-15.8998 
	-12.3331 
	12.4715  
	-71.628  
	-100.494 
	89.092   
	98.3878  
	101.349  
	218.747  
	308.923  
	200.093  
	-206.151 
	-272.887 
	-110.172 
	-91.4025 
	-92.2058 
	-72.7387 
	40.89    
	54.3011  
	-34.4383 
	-130.962 
	-259.89  
	-368.306 
	-463.64  
	-442.741 
	-325.244 
	-198.748 
	-86.2725 
	-21.254  
	51.7153  
	45.9103  
	29.5793  
	54.7195  
	1.15117  
	-8.60742 
	-11.9328 
	-7.98332 
	26.1792  
	-46.7262 
	-83.5174 
	-58.3835 
	-66.4201 
	-24.6106 
	-63.6631 
	-105.276 
	65.0011  
	80.0742  
	-13.714  
	50.4115  
	67.5854  
	189.194  
	258.815  
	207.618  
	305.206  
	378.828  
	570.12   
	749.174  
	591.854  
	326.778  
	230.842  
	163.771  
	53.1899  
	13.2834  
	-20.5476 
	54.0058  
	43.7817  
	-47.6453 
	-0.310063
	-62.3847 
	-241.932 
	-236.719 
	-140.66  
	-207.422 
	-177.664 
	-45.227  
	-71.2402 
	-156.987 
	-173.277 
	-65.2881 
	21.5452  
	161.119  
	332.358  
	201.678  
	115.368  
	37.6603  
	-170.344 
	0.59206  
	266.014  
	297.88   
	56.0421  
	-387.249 
	-494.742 
	-330.609 
	-181.347 
	-113.222 
	-137.132 
	-89.4324 
	-168.901 
	-371.004 
	-333.888 
	-274.891 
	-349.302 
	-283.032 
	-216.106 
	-213.406 
	-93.0486 
	-21.2855 
	-9.68398 
	49.9948  
	50.4615  
	12.0969  
	26.977   
	30.9019  
	-11.4748 
	-29.527  
	-32.1056 
	-71.3146 
	-112.84  
	-135.214 
	-161.057 
	-87.9462 
	-19.0709 
	-28.5962 
	115.316  
	160.442  
	55.0627  
	92.2284  
	127.592  
	107.424  
	38.5122  
	39.8299  
	63.219   
	99.1011  
	175.307  
	-118.058 
	-163.251 
	279.949  
	510.063  
	573.86   
	470.726  
	321.883  
	311.593  
	297.225  
	270.078  
	305.131  
	285.824  
	240.454  
	231.123  
	142.977  
	16.3128  
	-253.873 
	-286.567 
	-105.776 
	-289.559 
	-351.113 
	-142.249 
	-102.028 
	-192.253 
	-215.819 
	-84.5538 
	-91.2483 
	-205.787 
	-101.957 
	43.2887  
	69.5982  
	31.9536  
	-2.13216 
	5.77456  
	62.9119  
	90.1113  
	113.137  
	56.2881  
	-68.6027 
	22.8711  
	25.6574  
	-118.932 
	-42.1203 
	40.7424  
	79.4961  
	189.033  
	63.5016  
	-197.895 
	-346.381 
	-412.413 
	-385.439 
	-330.394 
	-221.109 
	-81.4194 
	-20.9713 
	66.2419  
	254.343  
	331.354  
	238.507  
	156.03   
	73.0013  
	-67.9702 
	-126.966 
	-168.265 
	-234.925 
	-226.214 
	-274.277 
	-276.004 
	-262.117 
	-343.236 
	-289.904 
	-181.671 
	-88.1305 
	15.8684  
	40.9612  
	100.471  
	137.698  
	104.974  
	127.362  
	132.122  
	147.996  
	236.378  
	263.129  
	145.385  
	32.5948  
	2.02017  
	19.0413  
	160.669  
	284.589  
	289.2    
	348.412  
	280.9    
	-47.3966 
	-123.578 
	-1.78014 
	-54.4859 
	79.4018  
	290.064  
	232.515  
	149.269  
	41.643   
	-146.808 
	-116.823 
	143.333  
	353.436  
	427.992  
	321.133  
	121.569  
	96.4126  
	240.065  
	406.496  
	394.924  
	76.7061  
	-276.792 
	-473.74  
	-471.579 
	-237.389 
	-66.8629 
	-203.327 
	-204.822 
	-14.0146 
	-80.0636 
	-33.6184 
	25.7152  
	-113.289 
	-284.715 
	-610.555 
	-542.89  
	-276.931 
	-321.947 
	-226.484 
	-62.905  
	-0.54042 
	93.5369  
	87.9458  
	42.2907  
	32.5033  
	-50.0241 
	-99.0778 
	-108.135 
	-196.861 
	-189.1   
	-81.5933 
	-117.221 
	-188.71  
	-202.989 
	-215.631 
	-177.004 
	-41.2754 
	4.0722   
	-105.866 
	-74.9337 
	32.577   
	99.7861  
	52.8891  
	-65.5559 
	-38.5046 
	13.6428  
	64.2773  
	13.5691  
	-90.9233 
	-15.1885 
	66.5746  
	111.743  
	162.486  
	213.913  
	320.708  
	271.565  
	119.561  
	131.458  
	175.894  
	210.198  
	228.437  
	208.64   
	397.643  
	496.189  
	353.664  
	334.923  
	79.43    
	-52.0411 
	311.532  
	484.39   
	384.352  
	77.422   
	-71.8753 
	146.463  
	156.748  
	36.985   
	-23.8672 
	-293.465 
	-416.55  
	-132.683 
	111.356  
	-66.1525 
	-254.4   
	-111.428 
	-152.512 
	-301.107 
	-273.441 
	-214.826 
	-198.079 
	-171.681 
	-30.7916 
	-12.4159 
	-207.35  
	-267.742 
	-142.818 
	-19.5695 
	110.618  
	76.6768  
	-51.4476 
	26.3836  
	47.1395  
	-61.4408 
	-77.0084 
	-112.035 
	-256.414 
	-375.423 
	-360.495 
	-282.301 
	-239.035 
	-224.755 
	-198.965 
	-133.295 
	-148.898 
	-207.375 
	-86.4681 
	-22.5713 
	-72.7011 
	28.9027  
	50.8001  
	-10.6635 
	107.873  
	115.499  
	-43.0899 
	-54.1554 
	-19.4668 
	42.4256  
	193.741  
	178.644  
	139.501  
	227.289  
	230.861  
	303.16   
	337.639  
	320.489  
	352.325  
	286.318  
	288.851  
	76.2509  
	-16.9691 
	137.848  
	-61.735  
	-182.842 
	-151.423 
	-44.5002 
	202.616  
	362.874  
	341.945  
	115.903  
	-83.0294 
	-128.045 
	-86.2658 
	-53.5656 
	-47.0985 
	-99.6457 
	-128.459 
	-48.1164 
	-29.8788 
	2.27616  
	113.3    
	283.824  
	569.493  
	488.832  
	-4.71563 
	-339.889 
	-640.014 
	-800     
	-320.968 
	-225.482 
	-360.427 
	-333.186 
	-207.724 
	-93.1094 
	10.411   
	-14.3167 
	-139.099 
	-85.8348 
	-77.7459 
	-212.384 
	-278.815 
	-330.706 
	-319.448 
	-336.993 
	-297.21  
	-124.693 
	-58.4804 
	22.5594  
	103.641  
	137.13   
	226.655  
	225.691  
	226.193  
	228.401  
	50.4764  
	-137.137 
	-149.391 
	-91.8395 
	-132.375 
	-154.956 
	-98.7591 
	-16.1556 
	3.80232  
	-54.5726 
	-3.59003 
	95.1517  
	126.851  
	139.637  
	99.5434  
	33.9389  
	47.9486  
	15.345   
	-90.1997 
	-40.589  
	88.7601  
	101.422  
	173.209  
	278.618  
	305.606  
	388.813  
	338.079  
	15.8453  
	-301.634 
	-275.552 
	-73.3923 
	1.18758  
	44.3819  
	-12.7768 
	-78.1939 
	74.9098  
	248.677  
	238.33   
	36.703   
	-208.74  
	-314.96  
	-273.389 
	-136.991 
	-45.4619 
	-118.574 
	-259.696 
	-261.426 
	-156.881 
	-199.416 
	-163.552 
	-9.2382  
	14.1946  
	41.4615  
	147.46   
	294.577  
	260.411  
	117.062  
	12.2523  
	-112.531 
	-142.32  
	-371.084 
	-583.513 
	-442.604 
	-448.404 
	-429.997 
	-127.786 
	66.5098  
	28.7246  
	-25.9899 
	70.9892  
	65.9528  
	-136.593 
	-124.359 
	24.0262  
	-62.0463 
	-143.956 
	-93.4395 
	-103.995 
	-50.6026 
	-4.57882 
	-98.0367 
	-134.682 
	-75.0607 
	5.91273  
	-3.04993 
	-42.4357 
	38.0859  
	82.8205  
	50.0536  
	39.5442  
	60.0314  
	189.069  
	324.01   
	270.983  
	186.908  
	201.166  
	215.958  
	142.012  
	-61.8724 
	-241.884 
	-233.867 
	-140.423 
	-36.8374 
	200.02   
	361.234  
	195.109  
	4.10042  
	-93.1544 
	-182.835 
	-204.272 
	-173.374 
	-140.217 
	-100.097 
	39.0471  
	75.7309  
	2.0003   
	104.78   
	106.827  
	-55.2823 
	-69.9103 
	-12.3863 
	153.594  
	306.529  
	96.7002  
	2.66113  
	114.953  
	-66.1726 
	-201.004 
	-107.109 
	-52.4179 
	-221.13  
	-397.036 
	-297.723 
	-148.059 
	-61.2652 
	-105.858 
	-170.344 
	-129.583 
	-89.337  
	-126.438 
	-173.592 
	-87.2127 
	-9.70432 
	64.8042  
	108.147  
	91.5035  
	185.383  
	247.206  
	311.816  
	259.421  
	10.1192  
	-85.2933 
	-175.209 
	-266.54  
	-289.77  
	-101.681 
	279.377  
	297.68   
	227.117  
	187.346  
	10.8161  
	28.8451  
	147.478  
	189.225  
	-39.4559 
	-308.537 
	-116.095 
	-84.3875 
	-313.407 
	-296.23  
	-234.279 
	-183.885 
	-305.933 
	-461.068 
	-345.366 
	-264.859 
	-250.091 
	-149.665 
	-58.8433 
	-38.3171 
	-23.098  
	108.486  
	360.12   
	519.69   
	509.125  
	547.679  
	669.479  
	567.336  
	461.288  
	481.346  
	316.872  
	481.085  
	649.72   
	371.73   
	410.665  
	537.92   
	406.072  
	104.37   
	-140.347 
	-127.228 
	-172.893 
	-85.6857 
	-19.4733 
	-190.906 
	-174.472 
	-100.385 
	-47.7059 
	85.0713  
	360.31   
	697.935  
	696.351  
	636.695  
	682.253  
	564.304  
	454.798  
	316.668  
	260.24   
	408.047  
	356.983  
	192.817  
	8.71604  
	-351.971 
	-556.704 
	-495.507 
	-301.64  
	-141.871 
	-121.749 
	-256.597 
	-298.7   
	-342.09  
	-424.74  
	-260.3   
	-113.097 
	-469.652 
	-800     
	-652.822 
	-238.651 
	167.179  
	412.481  
	501.975  
	669.23   
	631.064  
	426.649  
	5.22073  
	-345.142 
	-232.927 
	-219.024 
	-288.467 
	-211.628 
	-204.546 
	-337.506 
	-480.119 
	-426.7   
	-320.624 
	-155.209 
	73.2373  
	121.345  
	212.973  
	183.814  
	4.04716  
	173.582  
	338.845  
	473.187  
	630.373  
	337.736  
	228.877  
	391.06   
	362.225  
	405.641  
	273.604  
	171.133  
	362.329  
	342.914  
	191.799  
	347.736  
	472.45   
	227.771  
	-42.0087 
	-82.6138 
	244.309  
	204.725  
	-359.045 
	-404.809 
	-123.5   
	213.939  
	427.616  
	342.953  
	340.404  
	186.709  
	191.186  
	210.436  
	-434.957 
	-800     
	-410.673 
	-269.724 
	94.5042  
	565.61   
	688.133  
	795.45   
	732.704  
	148.67   
	-467.582 
	-800     
	-800     
	-491.36  
	-441.652 
	-334.352 
	-159.253 
	-195.271 
	-403.495 
	-452.395 
	-429.639 
	-565.639 
	-800     
	-574.573 
	-537.171 
	-652.846 
	-526.343 
	-581.328 
	-800     
	-557.646 
	-380.711 
	-138.156 
	-4.74498 
	37.0946  
	253.861  
	525.904  
	553.694  
	580.31   
	800      
	652.034  
	266.256  
	130.969  
	146.82   
	179.276  
	-155.146 
	-424.57  
	-294.96  
	-154.644 
	-133.839 
	-169.93  
	-222.489 
	-159.385 
	47.386   
	316.623  
	496.471  
	431.533  
	568.797  
	713.706  
	502.524  
	342.011  
	15.9405  
	-243.61  
	-118.147 
	19.5436  
	274.442  
	425.759  
	260.805  
	111.723  
	-149.155 
	-364.247 
	-268.655 
	-271.197 
	-372.665 
	-396.427 
	-347.019 
	-212.166 
	-181.13  
	-131.373 
	-6.73079 
	60.2353  
	331.594  
	444.51   
	303.057  
	447.32   
	506.528  
	357.69   
	65.3962  
	-346.375 
	-407.578 
	-183.095 
	91.7962  
	-63.5283 
	-185.681 
	-388.191 
	-800     
	-800     
	-800     
	-800     
	-800     
	-642.639 
	-512.643 
	-490.261 
	-411.554 
	-141.233 
	71.0651  
	236.229  
	499.256  
	773.3    
	799.976  
	799.976  
	712.328  
	471.831  
	110.369  
	316.387  
	221.788  
	-205.279 
	-56.4723 
	-310.643 
	-800     
	-621.726 
	-449.695 
	-425.627 
	-304.235 
	-220.049 
	-136.071 
	-84.0562 
	-233.781 
	-482.031 
	-800     
	-612.298 
	-381.624 
	-368.685 
	-336.281 
	-135.372 
	65.9869  
	256.771  
	410.268  
	544.914  
	552.692  
	545.455  
	634.966  
	66.4822  
	-437.123 
	-100.556 
	-314.35  
	-800     
	-650.744 
	-309.555 
	46.4064  
	327.45   
	75.0685  
	97.1229  
	384.218  
	236.123  
	258.898  
	335.632  
	-15.1343 
	-262.992 
	-138.053 
	119.874  
	105.867  
	-139.804 
	-146.248 
	-58.8962 
	-108.372 
	-75.4839 
	-97.9277 
	-218.65  
	-181.651 
	-251.286 
	-448.136 
	-534.514 
	-639.193 
	-800     
	-800     
	-532.497 
	-399.733 
	-456.469 
	-345.117 
	-124.288 
	6.75518  
	191.163  
	265.879  
	45.1749  
	13.0155  
	118.312  
	119.528  
	71.9349  
	-21.0086 
	277.236  
	348.35   
	201.347  
	393.51   
	172.322  
	-104.841 
	-118.668 
	-216.106 
	-371.826 
	-582.522 
	-555.936 
	-385.346 
	-467.744 
	-385.469 
	3.39206  
	168.44   
	255.516  
	568.508  
	742.271  
	337.444  
	-7.08149 
	-26.8005 
	-279.88  
	-429.455 
	-383.376 
	-242.332 
	35.0368  
	136.828  
	153.131  
	291.335  
	665.433  
	673.788  
	250.358  
	222.763  
	28.1173  
	-328.46  
	-374.915 
	-452.772 
	-396.502 
	-173.333 
	-6.80553 
	118.553  
	196.917  
	72.6641  
	6.93958  
	-106.15  
	-467.084 
	-525.498 
	-488.897 
	-207.991 
	250.49   
	245.871  
	30.8397  
	-110.711 
	-202.018 
	-354.837 
	-349.924 
	-277.164 
	-422.452 
	-329.53  
	-39.0216 
	135.594  
	26.5058  
	-23.3994 
	302.509  
	609.754  
	604.629  
	261.697  
	42.8554  
	-78.4489 
	-227.355 
	-170.388 
	-158.92  
	-238.696 
	-364.592 
	-496.738 
	-431.458 
	-306.129 
	-141.156 
	105.582  
	156.653  
	157.382  
	326.139  
	530.507  
	709.245  
	800      
	794.176  
	369.299  
	-21.1169 
	-42.8827 
	-107.048 
	-291.023 
	-328.988 
	-295.415 
	-298.444 
	-258.612 
	-380.933 
	-618.004 
	-800     
	-800     
	-650.645 
	-655.833 
	-800     
	-553.984 
	-519.524 
	-316.026 
	-237.647 
	-227.93  
	265.589  
	462.509  
	647.644  
	799.976  
	799.976  
	799.976  
	799.976  
	669.448  
	704.139  
	610.32   
	210.108  
	19.0714  
	-58.8695 
	-302.254 
	-395.859 
	-208.204 
	-77.7338 
	-30.4882 
	-115.116 
	-326.321 
	-278.119 
	-131.883 
	95.1784  
	411.131  
	505.018  
	484.87   
	383.099  
	331.937  
	-28.6522 
	-470.271 
	-302.867 
	-180.512 
	-168.635 
	-193.683 
	-307.542 
	-333.865 
	-285.844 
	-429.115 
	-800     
	-800     
	-800     
	-800     
	-800     
	-800     
	-800     
	-474.21  
	-151.549 
	249.286  
	426.505  
	184.449  
	258.128  
	565.237  
	560.44   
	555.359  
	589.582  
	469.759  
	179.01   
	-249.707 
	-232.919 
	40.8464  
	-81.5761 
	-383.432 
	-800     
	-800     
	-640.816 
	-478.92  
	-289.815 
	-225.048 
	-151.67  
	30.793   
	233.108  
	389.015  
	544.335  
	800      
	800      
	588.681  
	506.934  
	265.312  
	-100.151 
	37.0419  
	120.609  
	-69.9905 
	73.634   
	385.042  
	337.266  
	5.79002  
	-269.523 
	-642.49  
	-800     
	-800     
	-800     
	-800     
	-376.612 
	39.697   
	194.749  
	360.778  
	287.51   
	107.401  
	-6.75625 
	-217.19  
	-275.367 
	-289.361 
	-198.715 
	66.4975  
	240.476  
	364.88   
	269.409  
	147.775  
	-188.344 
	-800     
	-800     
	-800     
	-800     
	-594.393 
	-400.778 
	-425.902 
	-480.052 
	-503.441 
	-628.325 
	-523.235 
	-251.654 
	-22.66   
	111.363  
	171.838  
	373.325  
	636.387  
	574.356  
	423.658  
	420.274  
	89.5688  
	-319.589 
	-311.206 
	-447.697 
	-800     
	-800     
	-647.86  
	-589.149 
	-559.306 
	-562.74  
	-476.383 
	-397.434 
	-413.295 
	-532.593 
	-559.688 
	-357.992 
	-325.902 
	-300.872 
	-117.421 
	-100.662 
	46.6057  
	235.988  
	250.592  
	277.389  
	346.746  
	419.095  
	317.521  
	133.77   
	20.4901  
	-92.5522 
	-261.822 
	-381.967 
	-444.713 
	-566.683 
	-800     
	-800     
	-800     
	-800     
	-800     
	-800     
	-398.317 
	-365.906 
	-397.559 
	-553.839 
	-800     
	-800     
	-442.011 
	-111.728 
	-16.6852 
	-90.9733 
	-57.1422 
	-36.985  
	-196.945 
	-277.479 
	-410.668 
	-800     
	-800     
	-800     
	-800     
	-800     
	-800     
	-800     
	-800     
	-631.95  
	-800     
	-800     
	-800     
	-800     
	-800     
	-800     
	-479.022 
	-265.6   
	-402.664 
	-342.367 
	-286.012 
	-454.406 
	-502.697 
	-581.411 
	-395.357 
	-418.54  
	-800     
	-800     
	-800     
	-800     
	-549.292 
	-601.673 
	-800     
	-800     
	-800     
	-800     
	-413.874 
	-286.48  
	-324.161 
	-363.478 
	-557.019 
	-444.258 
	-306.221 
	-233.836 
	-153.807 
	-506.285 
	-800     
	-800     
	-800     
	-618.164 
	-800     
	-529.337 
	-512.388 
	-800     
	-800     
	-800     
	-800     
	-800     
	-800     
	-800     
	-800     
	-800     
	-800     
	-628.67  
	-800     
	-588.508 
	-437.857 
	-612.379 
	-800     
	-800     
	-800     
	-800     
	-800     
	-800     
	-800     
	-800     
	-800     
	-800     
	-800     
	-800     
	-800     
	-800     
	-800     
	-800     
	-800     
	-800     
	-357.582 
	-158.999 
	-374.877 
	-466.857 
	-356.705 
	-402.546 
	-286.515 
	-305.927 
	-485.234 
	-541.151 
	-475.714 
	-354.082 
	-532.518 
	-800     
	-800     
	-800     
	-800     
	-800     
	-800     
	-800     
	-800     
	-800     
	-800     
	-800     
	-800     
	-800     
	-800     
	-800     
	-800     
	-800     
	-800     
	-800     
	-800     
	-800     
	-800     
	-800     
	-800     
	-800     
	-800     
	-800     
	-800     
	-800     
	-800     
	-800     
	-800     
	-800     
	-800     
	-800     
	-800     
	-800     
	-800     
	-800     
	-800     
	-800     
	-800     
	-800     
	-800     
	-800     
	-800     
	-800     
	-800     
	-800     
	-800     
	-800     
	-800     
	-800     
	-800     
	-800     
	-800     
	-800     
	-800     
	-800     
	-800     
	-800     
	-800     
	-800     
	-800     
	-800     
	-800     
	-800     
	-800     
	-800     
	-800     
	-800     
	-800     
	-800     
	-800     
	-800     
	-800     
	-800     
	-800     
	-800     
	-800     
	-800     
	-800     
	-800     
	-800     
	-800     
	-800     
	-800     
	-800     
	-800     
	-800     
	-800     
	-800     
	-800     
	-800     
	-800     
	-800     
	-800     
	-800     
	-800     
	-800     
	-800     
	-800     
	-800     
	-800     
	-800     
	-800     
	-800     
	-800     
	-800     
	-800     
	-800     
	-800     
	-800     
	-800     
	-800     
	-800     
	-800     
	-800     
	-800     
	-800     
	-800     
	-800     
	-800     
	-800     
	-800     
	-800     
	-800     
	-800     
	-800     
	-800     
	-800     
	-800     
	-800     
	-800     
	-800     
	-800     
	-800     
	-800     
	-800     
	-800     
	-800     
	-800     
	-800     
	-800     
	-800     
	-800     
	-800     
	-800     
	-800     
	-800     
	-800     
	-800     
	-800     
	-800     
	-800     
	-800     
	-800     
	-800     
	-800     
	-800     
	-800     
	-800     
	-800     
	-800     
	-800     
	-800     
	-800     
	-800     
	-800     
	-800     
	-800     
	-800     
	-800     
	-800     
	-800     
	-800     
	-800     
	-800     
	-800     
	-800     
	-800     
	-800     
	-800     
	-800     
	-800     
	-800     
	-800     
	-800     
	-800     
	-800     
	-800     
	-800     
	-800     
	-800     
	-800     
	-800     
	-800     
	-800     
	-800     
	-800     
	-800     
	-800     
	-800     
	-800     
	-800     
	-800     
	-800     
	-800     
	-800     
	-800     
	-800     
	-800     
	-800     
	-800     
	-800     
	-800     
	-800     
	-800     
	-800     
	-800     
	-800     
	-800     
	-800     
	-800     
	-800     
	-800     
	-800     
	-800     
	-800     
	-800     
	-800     
	-800     
	-800     
	-800     
	-800     
	-800     
	-800     
	-800     
	-800     
	-800     
	-800     
	-800     
	-800     
	-800     
	-800     
	-800     
	-800     
	-800     
	-800     
	-800     
	-800     
	-800     
	-800     
	-800     
	-800     
	-800     
	-800     
	-800     
	-800     
	-800     
	-800     
	-800     
	-800     
	-800     
	-800     
	-800     
	-800     
	-800     
	-800     
	-800     
	-800     
	-800     
	-800     
	-800     
	-800     
	-800     
	-800     
	-800     
	-800     
	-800     
	-800     
	-800     
	-800     
	-800     
	-800     
	-800     
	-800     
	-800     
	-800     
	-800     
	-800     
	-800     
	-800     
	-800     
	-800     
	-800     
	-800     
	-800     
	-800     
	-800     
	-800     
	-800     
	-800     
	-800     
	-800     
	-800     
	-800     
	-800     
	-800     
	-800     
	-800     
	-800     
	-800     
	-800     
	-800     
	-800     
	-800     
	-800     
	-800     
	-800     
	-800     
	-800     
	-800     
	-800     
	-800     
	-800     
	-800     
	-800     
	-800     
	-800     
	-800     
	-800     
	-800     
	-800     
	-800     
	-800     
	-800     
	-800     
	-800     
	-800     
	-800     
	-800     
	-800     
	-800     
	-800     
	-800     
	-800     
	-800     
	-800     
	-800     
	-800     
	-800     
	-800     
	-800     
	-800     
	-800     
	-800     
	-800     
	-800     
	-800     
	-800     
	-800     
	-800     
	-800     
	-800     
	-800     
	-800     
	-800     
	-800     
	-800     
	-800     
	-800     
	-800     
	-800     
	-800     
	-800     
	-800     
	-800     
	-800     
	-800     
	-800     
	-800     
	-800     
	-800     
	-800     
	-800     
	-800     
	-800     
	-800     
	-800     
	-800     
	-800     
	-800     
	-800     
	-800     
	-800     
	-800     
	-800     
	-800     
	-800     
	-800     
	-800     
	-800     
	-800     
	-800     
	-800     
	-800     
	-800     
	-800     
	-800     
	-800     
	-800     
	-800     
	-486.049 
	-508.743 
	-800     
	-800     
	-800     
	-800     
	-800     
	-800     
	-800     
	-800     
	-800     
	-800     
	-800     
	-800     
	-800     
	-800     
	-800     
	-800     
	-800     
	-800     
	-800     
	-800     
	-800     
	-800     
	-800     
	-800     
	-800     
	-800     
	-800     
	-800     
	-800     
	-800     
	-800     
	-800     
	-800     
	-800     
	-800     
	-800     
	-800     
	-800     
	-800     
	-800     
	-800     
	-800     
	-800     
	-800     
	-800     
	-800     
	-800     
	-800     
	-800     
	-800     
	-800     
	-800     
	-800     
	-800     
	-800     
	-800     
	-800     
	-800     
	-800     
	-800     
	-800     
	-800     
	-800     
	-800     
	-800     
	-800     
	-800     
	-800     
	-800     
	-800     
	-800     
	-800     
	-800     
	-449.124 
	-610.38  
	-800     
	-800     
	-800     
	-800     
	-800     
	-800     
	-800     
	-800     
	-800     
	-800     
	-800     
	-800     
	-800     
	-800     
	-800     
	-800     
	-800     
	-800     
	-800     
	-800     
	-800     
	-800     
	-800     
	-800     
	-800     
	-800     
	-800     
	-800     
	-800     
	-800     
	-800     
	-800     
	-800     
	-800     
	-800     
	-800     
	-800     
	-800     
	-800     
	-800     
	-800     
	-800     
	-800     
	-800     
	-800     
	-800     
	-800     
	-800     
	-800     
	-800     
	-800     
	-800     
	-800     
	-800     
	-800     
	-800     
	-800     
	-800     
	-800     
	-800     
	-800     
	-800     
	-540.008 
	-603.163 
	-800     
	-800     
	-800     
	-800     
	-800     
	-800     
	-800     
	-800     
	-800     
	-800     
	-800     
	-800     
	-800     
	-800     
	-800     
	-800     
	-800     
	-800     
	-800     
	-800     
	-800     
	-800     
	-800     
	-800     
	-800     
	-800     
	-800     
	-800     
	-800     
	-800     
	-800     
	-800     
	-800     
	-800     
	-800     
	-800     
	-800     
	-800     
	-800     
	-800     
	-800     
	-800     
	-800     
	-800     
	-800     
	-800     
	-800     
	-800     
	-800     
	-800     
	-800     
	-800     
	-800     
	-800     
	-800     
	-800     
	-568.708 
	-527.488 
	-800     
	-800     
	-800     
	-800     
	-800     
	-800     
	-800     
	-800     
	-800     
	-800     
	-800     
	-800     
	-800     
	-800     
	-800     
	-800     
	-800     
	-800     
	-800     
	-800     
	-800     
	-800     
	-800     
	-800     
	-800     
	-800     
	-800     
	-800     
	-800     
	-800     
	-599.862 
	-504.972 
	-402.139 
	-538.385 
	-800     
	-800     
	-800     
	-800     
	-800     
	-800     
	-800     
	-800     
	-800     
	-800     
	-800     
	-800     
	-800     
	-800     
	-800     
	-554.566 
	-545.618 
	-555.956 
	-388.634 
	13.6727  
	199.604  
	-287.52  
	-800     
	-800     
	-800     
	-800     
	-553.572 
	-491.21  
	-458.136 
	-473.859 
	-516.625 
	-591.069 
	-800     
	-800     
	-800     
	-800     
	-800     
	-800     
	-800     
	-800     
	-800     
	-800     
	-800     
	-800     
	-415.9   
	-249.769 
	-394.62  
	-268.287 
	-226.707 
	-473.092 
	-800     
	-800     
	-800     
	-800     
	-800     
	-800     
	-800     
	-800     
	-800     
	-800     
	-800     
	-800     
	-800     
	-800     
	-800     
	-800     
	-800     
	-800     
	-492.616 
	-314.779 
	-329.04  
	-302.224 
	-7.37581 
	102.544  
	-33.1414 
	-251.623 
	-377.616 
	-457.761 
	-800     
	-800     
	-551.779 
	-341.708 
	-75.8596 
	-281.016 
	-324.098 
	-295.144 
	-414.689 
	-490.227 
	-800     
	-800     
	-800     
	-800     
	-800     
	-800     
	-800     
	-800     
	-800     
	-800     
	-522.158 
	-434.195 
	-540.21  
	-544.899 
	-438.259 
	-529.07  
	-800     
	-800     
	-800     
	-800     
	-800     
	-800     
	-800     
	-800     
	-800     
	-800     
	-800     
	-800     
	-517.145 
	-436.826 
	-438.198 
	-442.787 
	-457.758 
	-445.309 
	-440.25  
	-384.418 
	-274.69  
	-394.786 
	-800     
	-800     
	-800     
	-424.531 
	-301.141 
	-410.699 
	-398.51  
	-375.124 
	-504.714 
	-800     
	-800     
	-800     
	-800     
	-530.885 
	-555.129 
	-511.886 
	-329.306 
	-220.267 
	-199.095 
	-20.0551 
	268.431  
	292.853  
	-151.811 
	-310.091 
	61.9689  
	431.84   
	485.711  
	373.987  
	532.58   
	356.107  
	-177.436 
	-414.939 
	-448.889 
	-432.238 
	-442.082 
	-501.202 
	-800     
	-800     
	-800     
	-800     
	-336.105 
	-344.716 
	-370.531 
	-143.044 
	154.845  
	243.751  
	112.946  
	-121.836 
	-422.445 
	-800     
	-550.97  
	-357.681 
	-203.173 
	-111.641 
	-97.2833 
	-117.125 
	-113.807 
	-296.354 
	-408.946 
	-491.056 
	-800     
	-800     
	-800     
	-800     
	-800     
	-800     
	-800     
	-800     
	-427.616 
	-313.635 
	-240.92  
	-164.463 
	-32.0023 
	191.968  
	225.339  
	205.865  
	142.206  
	-102.85  
	-243.466 
	-238.666 
	-196.629 
	-130.134 
	-96.717  
	-112.34  
	-167.789 
	-278.062 
	-800     
	-800     
	-800     
	-334.612 
	-181.147 
	23.2984  
	396.096  
	619.015  
	614.092  
	507.785  
	281.357  
	340.487  
	376.749  
	98.8102  
	173.553  
	295.303  
	148.717  
	43.6532  
	-127.752 
	-296.078 
	-186.467 
	111.187  
	175.394  
	207.65   
	425.558  
	337.241  
	82.2312  
	-175.884 
	-260.311 
	50.7022  
	131.17   
	139.923  
	66.462   
	-251.625 
	-189.466 
	-179.864 
	-367.727 
	-338.472 
	-321.297 
	-237.542 
	-8.81817 
	-41.4612 
	-316.221 
	-438.068 
	-453.926 
	-514.365 
	-800     
	-800     
	-800     
	-800     
	-800     
	-401.172 
	-174.531 
	-47.2219 
	-47.2549 
	-42.3364 
	59.7956  
	148.93   
	254.433  
	372.567  
	411.964  
	545.533  
	260.251  
	-268.891 
	-174.308 
	-72.8538 
	-105.815 
	-156.276 
	-297.303 
	-148.104 
	-57.7482 
	-184.156 
	-19.5593 
	194.875  
	131.701  
	228.773  
	267.879  
	233.568  
	643.264  
	799.976  
	800      
	446.491  
	-47.9526 
	-312.944 
	-267.45  
	-167.65  
	-141.553 
	-19.1113 
	166.443  
	497.701  
	506.276  
	234.361  
	240.749  
	423.667  
	699.292  
	558.311  
	305.909  
	308.064  
	-96.457  
	-338.381 
	-25.6594 
	85.3682  
	61.9383  
	193.192  
	231.975  
	134.925  
	45.375   
	126.609  
	197.983  
	104.436  
	14.6261  
	-20.8416 
	-12.607  
	-147.734 
	-392.951 
	-487.751 
	-381.267 
	-222.494 
	-107.754 
	77.4311  
	241.193  
	325.839  
	487.181  
	781.785  
	800      
	800      
	396.782  
	121.464  
	33.7199  
	-1.49119 
	80.368   
	72.4602  
	-67.3884 
	-84.579  
	-89.4197 
	-146.521 
	-100.049 
	-142.447 
	-80.5908 
	316.55   
	520.936  
	552.003  
	427.105  
	449.618  
	627.825  
	430.221  
	430.215  
	506.114  
	450.816  
	486.48   
	447.391  
	411.278  
	455.553  
	569.82   
	758.972  
	799.976  
	799.976  
	799.976  
	800      
	800      
	800      
	800      
	800      
	212.157  
	-37.3727 
	-198.454 
	-374.232 
	-180.935 
	-80.932  
	-57.3152 
	26.5761  
	118.383  
	110.281  
	-64.4446 
	-253.085 
	-489.153 
	-800     
	-800     
	-800     
	-800     
	-445.668 
	-372.924 
	-238.241 
	-101.446 
	45.3115  
	300.137  
	509.822  
	624.548  
	712.959  
	800      
	800      
	750.625  
	647.915  
	528.714  
	501.399  
	425.525  
	295.767  
	148.741  
	117.533  
	228.901  
	191.029  
	211.304  
	406.961  
	658.739  
	800      
	799.976  
	729.369  
	480.084  
	508.911  
	623.102  
	702.565  
	642.287  
	570.611  
	464.263  
	244.479  
	260.774  
	449.728  
	357.39   
	273.469  
	370.494  
	254.694  
	214.139  
	269.567  
	287.352  
	316.372  
	212.358  
	371.402  
	637.296  
	797.661  
	799.976  
	799.976  
	799.976  
	799.976  
	800      
	702.504  
	799.976  
	799.976  
	800      
	611.247  
	492.579  
	419.819  
	334.635  
	330.711  
	438.116  
	395.776  
	184.17   
	50.1106  
	20.6249  
	124.029  
	18.3034  
	-195.909 
	-41.7784 
	207.918  
	295.212  
	352.975  
	470.826  
	583.942  
	694.845  
	761.537  
	708.637  
	523.197  
	550.968  
	800      
	800      
	708.042  
	643.29   
	547.05   
	500.627  
	536.343  
	509.063  
	615.522  
	800      
	800      
	800      
	686.67   
	462.685  
	567.67   
	736.801  
	799.976  
	800      
	531.848  
	563.335  
	676.472  
	544.875  
	116.736  
	127.297  
	448.604  
	397.269  
	340.958  
	402.244  
	352.801  
	256.889  
	466.656  
	738.249  
	705.856  
	714.233  
	700.179  
	707.616  
	773.089  
	760.192  
	800      
	771.219  
	744.277  
	799.976  
	799.976  
	799.976  
	771.728  
	751.346  
	800      
	799.976  
	799.976  
	800      
	717.847  
	462.046  
	268.315  
	433.912  
	538.659  
	508.984  
	461.804  
	332.929  
	450.891  
	605.168  
	386.922  
	331.801  
	544.378  
	552.108  
	555.75   
	684.244  
	709.345  
	774.864  
	800      
	800      
	800      
	739.075  
	760.098  
	636.368  
	384.721  
	535.099  
	800      
	799.976  
	799.976  
	799.976  
	799.976  
	799.976  
	788.242  
	799.976  
	799.976  
	605.531  
	102.86   
	173.279  
	99.4373  
	344.575  
	625.423  
	592.218  
	597.297  
	492.9    
	438.871  
	578.171  
	799.976  
	799.976  
	691.938  
	515.384  
	507.657  
	548.725  
	557.96   
	549.03   
	550.58   
	520.371  
	527      
	628.839  
	800      
	799.976  
	799.976  
	694.047  
	483.756  
	641.362  
	743.815  
	629.385  
	601.32   
	525.842  
	414.75   
	546.729  
	663.507  
	649.987  
	696.837  
	722.622  
	729.894  
	784.057  
	750.188  
	737.724  
	721.724  
	647.556  
	720.191  
	800      
	799.976  
	799.976  
	731.65   
	622.024  
	800      
	799.976  
	799.976  
	799.976  
	799.976  
	799.976  
	799.976  
	799.976  
	488.061  
	680.513  
	799.976  
	799.976  
	799.976  
	799.976  
	799.976  
	458.443  
	256.45   
	713.201  
	794.592  
	416.667  
	528.056  
	660.87   
	677.332  
	794.742  
	753.438  
	800      
	799.976  
	799.976  
	770.626  
	650.535  
	799.976  
	799.976  
	799.976  
	799.976  
	799.976  
	799.976  
	799.976  
	799.976  
	799.976  
	707.604  
	799.976  
	799.976  
	799.976  
	757.93   
	448.004  
	643.263  
	799.976  
	545.73   
	383.062  
	527.321  
	686.698  
	594.888  
	729.601  
	799.976  
	595.05   
	471.9    
	642.382  
	719.296  
	698.866  
	799.976  
	799.976  
	503.201  
	364.906  
	631.91   
	737.82   
	799.976  
	752.333  
	677.327  
	764.419  
	742.416  
	753.139  
	799.976  
	799.976  
	799.976  
	752.841  
	647.321  
	799.976  
	799.976  
	799.976  
	799.976  
	799.976  
	799.976  
	799.976  
	799.976  
	799.976  
	799.976  
	742.568  
	799.976  
	799.976  
	799.976  
	799.976  
	799.976  
	799.976  
	799.976  
	799.976  
	799.976  
	754.461  
	799.976  
	799.976  
	799.976  
	799.976  
	799.976  
	799.976  
	799.976  
	630.84   
	635.822  
	636.965  
	600.543  
	558.8    
	331.862  
	308.772  
	640.542  
	799.976  
	799.976  
	752.07   
	612.453  
	522.905  
	683.047  
	711.468  
	540.17   
	481.174  
	323.384  
	434.876  
	799.976  
	799.976  
	799.976  
	799.976  
	799.976  
	799.976  
	799.976  
	799.976  
	743.213  
	799.976  
	799.976  
	704.518  
	799.976  
	799.976  
	799.976  
	733.166  
	457.385  
	429.18   
	557.839  
	799.976  
	799.976  
	799.976  
	799.976  
	799.976  
	799.976  
	799.976  
	799.976  
	799.976  
	799.976  
	799.976  
	799.976  
	799.976  
	799.976  
	799.976  
	799.976  
	799.976  
	799.976  
	799.976  
	799.976  
	799.976  
	799.976  
	540.69   
	424.959  
	799.976  
	700.972  
	123.973  
	165.595  
	447.902  
	799.976  
	799.976  
	799.976  
	799.976  
	601.355  
	420.606  
	533.427  
	629.62   
	713.46   
	799.976  
	799.976  
	799.976  
	799.976  
	799.976  
	799.976  
	799.976  
	799.976  
	799.976  
	492.279  
	606.501  
	799.976  
	599.26   
	619.936  
	724.698  
	799.976  
	799.976  
	799.976  
	799.976  
	799.976  
	799.976  
	799.976  
	679.769  
	683.659  
	675.297  
	799.976  
	799.976  
	799.976  
	799.976  
	799.976  
	799.976  
	799.976  
	799.976  
	799.976  
	799.976  
	799.976  
	723.367  
	421.237  
	705.623  
	799.976  
	799.976  
	799.976  
	799.976  
	799.976  
	799.976  
	799.976  
	799.976  
	799.976  
	799.976  
	431.772  
	506.424  
	799.976  
	799.976  
	799.976  
	799.976  
	799.976  
	799.976  
	799.976  
	799.976  
	799.976  
	799.976  
	799.976  
	799.976  
	799.976  
	638.255  
	799.976  
	799.976  
	799.976  
	799.976  
	799.976  
	547.024  
	650.679  
	799.976  
	799.976  
	799.976  
	799.976  
	799.976  
	799.976  
	799.976  
	799.976  
	573.938  
	491.683  
	358.264  
	350.613  
	447.223  
	259.301  
	152.687  
	398.066  
	645.567  
	799.976  
	799.976  
	799.976  
	799.976  
	608.325  
	799.976  
	799.976  
	799.976  
	799.976  
	799.976  
	799.976  
	799.976  
	799.976  
	799.976  
	684.01   
	799.976  
	799.976  
	799.976  
	799.976  
	799.976  
	799.976  
	799.976  
	799.976  
	799.976  
	799.976  
	799.976  
	526.691  
	663.435  
	799.976  
	799.976  
	799.976  
	799.976  
	799.976  
	799.976  
	799.976  
	799.976  
	799.976  
	799.976  
	799.976  
	799.976  
	635.598  
	602.228  
	799.976  
	799.976  
	799.976  
	799.976  
	650.338  
	429.471  
	377.611  
	667.202  
	569.794  
	200.245  
	282.87   
	366.876  
	430.089  
	355.447  
	166.502  
	156.383  
	363.9    
	799.976  
	799.976  
	799.976  
	799.976  
	799.976  
	799.976  
	799.976  
	799.976  
	799.976  
	799.976  
	799.976  
	799.976  
	799.976  
	799.976  
	799.976  
	799.976  
	799.976  
	501.268  
	278.657  
	298.962  
	389.523  
	389.569  
	449.861  
	557.578  
	455.28   
	500.399  
	799.976  
	799.976  
	799.976  
	674.242  
	799.976  
	799.976  
	799.976  
	799.976  
	799.976  
	799.976  
	799.976  
	799.976  
	799.976  
	799.976  
	799.976  
	799.976  
	799.976  
	799.976  
	799.976  
	799.976  
	425.085  
	416.454  
	475.134  
	439.579  
	650.879  
	469.915  
	291.413  
	617.997  
	799.976  
	799.976  
	799.976  
	799.976  
	799.976  
	799.976  
	799.976  
	799.976  
	799.976  
	799.976  
	799.976  
	799.976  
	799.976  
	799.976  
	799.976  
	799.976  
	799.976  
	799.976  
	799.976  
	799.976  
	799.976  
	679.029  
	542.574  
	561.284  
	586.519  
	284.184  
	303.6    
	619.307  
	799.976  
	799.976  
	389.62   
	654.382  
	799.976  
	799.976  
	799.976  
	799.976  
	799.976  
	534.779  
	255.225  
	186.498  
	246.733  
	491.789  
	660.77   
	799.976  
	799.976  
	799.976  
	799.976  
	799.976  
	799.976  
	799.976  
	799.976  
	658.036  
	799.976  
	799.976  
	799.976  
	799.976  
	799.976  
	799.976  
	799.976  
	799.976  
	799.976  
	799.976  
	587.135  
	472.025  
	799.976  
	799.976  
	799.976  
	799.976  
	799.976  
	799.976  
	799.976  
	596.115  
	358.812  
	330.842  
	420.514  
	506.066  
	629.312  
	799.976  
	799.976  
	799.976  
	799.976  
	613.71   
	636.286  
	799.976  
	799.976  
	799.976  
	799.976  
	799.976  
	799.976  
	799.976  
	799.976  
	799.976  
	799.976  
	799.976  
	799.976  
	799.976  
	799.976  
	799.976  
	799.976  
	799.976  
	619.988  
	253.759  
	137.667  
	213.825  
	204.982  
	178.693  
	171.77   
	260.962  
	526.478  
	799.976  
	641.319  
	562.01   
	528.803  
	516.831  
	570.005  
	639.835  
	635.629  
	799.976  
	260.906  
	-262.066 
	-4.22246 
	417.678  
	799.976  
	799.976  
	799.976  
	799.976  
	482.527  
	140.947  
	81.021   
	307.437  
	468.35   
	461.199  
	423.646  
	435.311  
	493.834  
	580.808  
	799.976  
	799.976  
	799.976  
	799.976  
	799.976  
	799.976  
	799.976  
	799.976  
	799.976  
	799.976  
	799.976  
	409.61   
	592.43   
	799.976  
	799.976  
	584.581  
	305.153  
	124.328  
	319.271  
	334.962  
	410.089  
	799.976  
	799.976  
	799.976  
	799.976  
	799.976  
	799.976  
	799.976  
	799.976  
	799.976  
	799.976  
	799.976  
	460.318  
	189.392  
	132.375  
	478.966  
	799.976  
	799.976  
	799.976  
	799.976  
	496.576  
	248.291  
	417.682  
	210.083  
	105      
	193.366  
	197.709  
	305.438  
	474.697  
	799.976  
	799.976  
	799.976  
	799.976  
	799.976  
	799.976  
	557.342  
	799.976  
	799.976  
	799.976  
	799.976  
	799.976  
	799.976  
	799.976  
	799.976  
	799.976  
	535.998  
	353.737  
	204.456  
	-29.181  
	80.8288  
	117.239  
	201.777  
	363.06   
	286.251  
	398.228  
	551.897  
	536.368  
	252.299  
	83.8178  
	299.716  
	411.301  
	389.061  
	408.865  
	799.976  
	799.976  
	355.581  
	456.646  
	799.976  
	799.976  
	799.976  
	799.976  
	799.976  
	799.976  
	490.152  
	427.958  
	799.976  
	799.976  
	504.178  
	475.3    
	536.772  
	551.882  
	585.77   
	547.201  
	366.383  
	491.99   
	799.976  
	799.976  
	799.976  
	799.976  
	799.976  
	799.976  
	799.976  
	559.406  
	799.976  
	799.976  
	799.976  
	799.976  
	799.976  
	799.976  
	799.976  
	569.23   
	545.547  
	187.531  
	-213.665 
	-292.777 
	-205.174 
	-35.7571 
	187.123  
	350.165  
	547.561  
	799.976  
	490.551  
	547.848  
	799.976  
	567.572  
	570.771  
	571.329  
	588.692  
	799.976  
	513.653  
	317.922  
	247.662  
	151.46   
	228.177  
	445.486  
	799.976  
	799.976  
	569.846  
	404.547  
	-10.4005 
	-112.189 
	-14.6574 
	-17.6054 
	140.433  
	205.073  
	148.684  
	265.335  
	412.62   
	799.976  
	799.976  
	799.976  
	799.976  
	799.976  
	799.976  
	799.976  
	799.976  
	799.976  
	799.976  
	338.352  
	397.35   
	366.308  
	799.976  
	537.525  
	-55.9952 
	-358.485 
	-406.201 
	-216.673 
	-180.312 
	-213.364 
	175.124  
	298.286  
	280.089  
	573.815  
	799.976  
	526.098  
	486.958  
	455.039  
	484.866  
	799.976  
	799.976  
	799.976  
	799.976  
	799.976  
	799.976  
	270.481  
	169.188  
	196.406  
	334.528  
	799.976  
	476.512  
	300.437  
	197.307  
	-32.3654 
	-157.821 
	-70.5448 
	108.521  
	289.444  
	460.417  
	517.746  
	552.966  
	799.976  
	799.976  
	799.976  
	799.976  
	799.976  
	799.976  
	799.976  
	536.338  
	799.976  
	555.694  
	420.325  
	255.039  
	165.897  
	517.376  
	799.976  
	799.976  
	484.327  
	417.753  
	381.965  
	418.075  
	459.044  
	121.29   
	-276.952 
	-325.285 
	37.145   
	504.871  
	799.976  
	799.976  
	799.976  
	799.976  
	799.976  
	799.976  
	-105.735 
	-580.112 
	-294.668 
	-80.8129 
	-42.8789 
	93.8163  
	10.2464  
	-316.637 
	-665.759 
	-640.04  
	-169.257 
	155.219  
	372.519  
	398.793  
	268.842  
	432.219  
	496.626  
	500.421  
	525.186  
	481.756  
	508.19   
	279.761  
	58.5194  
	209.341  
	277.266  
	492.482  
	799.976  
	799.976  
	799.976  
	799.976  
	799.976  
	481.675  
	799.976  
	799.976  
	304.615  
	549.756  
	799.976  
	487.401  
	421.797  
	263.143  
	255.842  
	390.023  
	799.976  
	799.976  
	799.976  
	799.976  
	268.967  
	-72.2102 
	41.1492  
	206.955  
	472.257  
	495.977  
	240.79   
	37.6465  
	104.383  
	177.383  
	7.38485  
	-49.3383 
	170.933  
	471.767  
	394.924  
	170.099  
	117.094  
	-30.5954 
	132.029  
	799.976  
	799.976  
	799.976  
	799.976  
	799.976  
	286.956  
	206.705  
	-132.038 
	-271.062 
	-102.496 
	-146.548 
	-203.811 
	-290.99  
	-312.418 
	-141.409 
	-53.9689 
	-99.6248 
	186.036  
	799.976  
	799.976  
	504.671  
	799.976  
	799.976  
	799.976  
	799.976  
	512.818  
	799.976  
	799.976  
	489.021  
	358.022  
	155.706  
	-409.947 
	-493.446 
	-472.686 
	-474.331 
	-296.822 
	-198.747 
	-66.636  
	-88.4136 
	-178.152 
	-192.207 
	-203.553 
	-284.733 
	-206.096 
	53.594   
	-7.72858 
	108.753  
	469.926  
	457.137  
	258.172  
	277.417  
	345.555  
	314.098  
	224.918  
	2.8522   
	25.7988  
	254.611  
	314.963  
	215.073  
	-23.2914 
	-279.061 
	-491.298 
	-590.985 
	-417.524 
	-176.851 
	-341.596 
	-593.375 
	-440.935 
	-104.97  
	317.778  
	389.45   
	384.472  
	799.976  
	518.532  
	799.976  
	799.976  
	232.569  
	152.445  
	161.012  
	-17.395  
	-183.002 
	-233.634 
	-400.199 
	-306.125 
	-258.205 
	-618.974 
	-437.24  
	-90.6485 
	137.067  
	404.329  
	349.98   
	435.226  
	530.945  
	345.523  
	311.237  
	301.772  
	257.104  
	259.376  
	117.492  
	276.812  
	448.516  
	48.3886  
	-55.6573 
	267.434  
	531.451  
	799.976  
	358.37   
	204.299  
	106.326  
	118.443  
	18.4844  
	-322.659 
	-535.034 
	-545.733 
	-451.335 
	-253.893 
	142.867  
	263.261  
	282.423  
	799.976  
	799.976  
	370.211  
	291.803  
	-188.641 
	-77.9399 
	355.392  
	425.261  
	518.658  
	418.628  
	174.465  
	154.648  
	-50.8945 
	-473.227 
	-280.207 
	28.8194  
	-125.777 
	-202.957 
	-147.109 
	57.1019  
	-17.4716 
	-326.473 
	-247.782 
	-477.884 
	-713.235 
	-273.607 
	102.36   
	340.15   
	402.487  
	123.524  
	-85.8622 
	-24.4057 
	148.061  
	108.634  
	83.6235  
	103.93   
	110.32   
	188.992  
	-39.2983 
	-265.939 
	6.66882  
	380.62   
	508.37   
	799.976  
	799.976  
	505.607  
	359.356  
	70.645   
	-312.379 
	-446.087 
	-318.559 
	-324.861 
	-418.74  
	-198.675 
	198.298  
	332.465  
	145.613  
	-128.427 
	-320.581 
	-275.122 
	-8.03357 
	-110.656 
	-660.466 
	-768.419 
	-326.444 
	-142.945 
	-366.829 
	-459.409 
	-352.588 
	-161.088 
	76.5649  
	314.063  
	391.083  
	331.856  
	532.871  
	523.257  
	-123.019 
	-539.338 
	-104.429 
	18.504   
	-390.057 
	-181.656 
	-160.996 
	-556.266 
	-581.78  
	-462.021 
	-194.751 
	0.110666 
	-106.576 
	-321.943 
	-348.606 
	-278.483 
	-613.92  
	-784.5   
	-518.915 
	-274.539 
	200.848  
	799.976  
	446.136  
	193.238  
	-65.5006 
	-351.777 
	-263.794 
	110.765  
	133.776  
	-334.638 
	-546.429 
	-254.365 
	-76.8063 
	-351.476 
	-613.09  
	-610.617 
	-749.3   
	-800     
	-800     
	-800     
	-590.371 
	-131.999 
	324.094  
	508.782  
	122.151  
	-557.516 
	-572.953 
	-272.132 
	-196.787 
	-269.784 
	-340.79  
	-320.928 
	-651.358 
	-800     
	-767.259 
	-522.561 
	-290.324 
	-611.91  
	-800     
	-800     
	-800     
	-800     
	-800     
	-800     
	-800     
	-800     
	-800     
	-800     
	-800     
	-800     
	-800     
	-800     
	-800     
	-800     
	-800     
	-800     
	-800     
	-800     
	-800     
	-800     
	-800     
	-450.157 
	-584.63  
	-800     
	-800     
	-800     
	-800     
	-800     
	-800     
	-800     
	-700.059 
	-800     
	-800     
	-570.833 
	-800     
	-800     
	-800     
	-800     
	-800     
	-800     
	-800     
	-800     
	-800     
	-800     
	-800     
	-800     
	-800     
	-800     
	-800     
	-800     
	-800     
	-800     
	-800     
	-800     
	-800     
	-800     
	-800     
	-800     
	-800     
	-800     
	-800     
	-800     
	-800     
	-800     
	-800     
	-800     
	-800     
	-800     
	-800     
	-800     
	-800     
	-800     
	-800     
	-800     
	-800     
	-800     
	-800     
	-800     
	-800     
	-800     
	-800     
	-800     
	-800     
	-800     
	-800     
	-800     
	-800     
	-800     
	-800     
	-800     
	-800     
	-800     
	-800     
	-800     
	-800     
	-800     
	-800     
	-800     
	-800     
	-800     
	-800     
	-800     
	-800     
	-800     
	-800     
	-800     
	-800     
	-800     
	-800     
	-800     
	-800     
	-800     
	-800     
	-800     
	-800     
	-800     
	-800     
	-800     
	-800     
	-800     
	-800     
	-800     
	-800     
	-800     
	-800     
	-800     
	-800     
	-800     
	-800     
	-800     
	-800     
	-800     
	-800     
	-800     
	-800     
	-800     
	-800     
	-800     
	-800     
	-800     
	-800     
	-800     
	-800     
	-800     
	-800     
	-800     
	-800     
	-800     
	-800     
	-800     
	-800     
	-800     
	-800     
	-800     
	-800     
	-800     
	-800     
	-800     
	-800     
	-800     
	-800     
	-800     
	-800     
	-800     
	-800     
	-800     
	-800     
	-800     
	-800     
	-800     
	-800     
	-800     
	-800     
	-800     
	-800     
	-800     
	-800     
	-800     
	-800     
	-800     
	-800     
	-800     
	-800     
	-800     
	-800     
	-800     
	-800     
	-800     
	-800     
	-800     
	-800     
	-800     
	-800     
	-800     
	-800     
	-800     
	-800     
	-800     
	-800     
	-800     
	-800     
	-800     
	-800     
	-800     
	-800     
	-800     
	-800     
	-800     
	-800     
	-800     
	-800     
	-800     
	-800     
	-800     
	-800     
	-800     
	-800     
	-800     
	-800     
	-800     
	-800     
	-800     
	-800     
	-800     
	-800     
	-800     
	-800     
	-800     
	-800     
	-800     
	-800     
	-800     
	-800     
	-800     
	-800     
	-800     
	-800     
	-800     
	-800     
	-800     
	-800     
	-800     
	-800     
	-800     
	-800     
	-800     
	-800     
	-800     
	-800     
	-800     
	-800     
	-800     
	-800     
	-800     
	-800     
	-800     
	-800     
	-800     
	-800     
	-800     
	-800     
	-800     
	-800     
	-800     
	-800     
	-800     
	-800     
	-800     
	-800     
	-800     
	-800     
	-800     
	-800     
	-800     
	-800     
	-800     
	-800     
	-800     
	-800     
	-800     
	-800     
	-800     
	-800     
	-800     
	-800     
	-800     
	-800     
	-800     
	-800     
	-800     
	-800     
	-800     
	-800     
	-800     
	-800     
	-800     
	-800     
	-800     
	-800     
	-800     
	-800     
	-800     
	-800     
	-800     
	-800     
	-800     
	-800     
	-800     
	-800     
	-800     
	-800     
	-800     
	-800     
	-800     
	-800     
	-800     
	-800     
	-800     
	-800     
	-800     
	-800     
	-800     
	-800     
	-800     
	-800     
	-800     
	-800     
	-800     
	-800     
	-800     
	-800     
	-800     
	-800     
	-800     
	-800     
	-800     
	-800     
	-800     
	-800     
	-800     
	-800     
	-800     
	-800     
	-800     
	-800     
	-800     
	-800     
	-800     
	-800     
	-800     
	-800     
	-800     
	-800     
	-800     
	-800     
	-800     
	-800     
	-800     
	-800     
	-800     
	-800     
	-800     
	-800     
	-800     
	-800     
	-800     
	-800     
	-800     
	-800     
	-800     
	-800     
	-800     
	-800     
	-800     
	-800     
	-800     
	-800     
	-800     
	-800     
	-800     
	-800     
	-800     
	-800     
	-800     
	-800     
	-800     
	-800     
	-800     
	-800     
	-800     
	-800     
	-800     
	-800     
	-800     
	-800     
	-800     
	-800     
	-800     
	-800     
	-800     
	-800     
	-800     
	-800     
	-800     
	-800     
	-800     
	-800     
	-800     
	-800     
	-800     
	-800     
	-800     
	-800     
	-800     
	-800     
	-800     
	-800     
	-800     
	-800     
	-800     
	-800     
	-800     
	-800     
	-800     
	-800     
	-800     
	-800     
	-800     
	-800     
	-800     
	-800     
	-800     
	-740.827 
	-740.211 
	-738.986 
	-800     
	-800     
	-800     
	-800     
	-800     
	-800     
	-800     
	-800     
	-800     
	-800     
	-800     
	-800     
	-800     
	-800     
	-800     
	-800     
	-800     
	-800     
	-800     
	-800     
	-800     
	-800     
	-800     
	-800     
	-800     
	-800     
	-800     
	-800     
	-800     
	-800     
	-800     
	-800     
	-800     
	-800     
	-800     
	-800     
	-800     
	-800     
	-800     
	-800     
	-800     
	-800     
	-800     
	-800     
	-800     
	-800     
	-800     
	-800     
	-800     
	-800     
	-800     
	-800     
	-800     
	-800     
	-800     
	-800     
	-800     
	-800     
	-800     
	-800     
	-800     
	-800     
	-800     
	-800     
	-800     
	-800     
	-800     
	-800     
	-800     
	-800     
	-800     
	-800     
	-800     
	-800     
	-800     
	-800     
	-800     
	-800     
	-800     
	-800     
	-800     
	-800     
	-800     
	-800     
	-800     
	-800     
	-800     
	-800     
	-800     
	-800     
	-800     
	-800     
	-800     
	-800     
	-800     
	-800     
	-800     
	-800     
	-800     
	-800     
	-800     
	-800     
	-800     
	-800     
	-800     
	-800     
	-800     
	-800     
	-800     
	-800     
	-800     
	-800     
	-800     
	-800     
	-800     
	-800     
	-800     
	-800     
	-800     
	-800     
	-800     
	-752.283 
	-800     
	-800     
	-800     
	-800     
	-800     
	-800     
	-800     
	-800     
	-800     
	-800     
	-800     
	-800     
	-800     
	-800     
	-800     
	-800     
	-800     
	-800     
	-800     
	-800     
	-800     
	-800     
	-800     
	-800     
	-800     
	-800     
	-800     
	-800     
	-800     
	-800     
	-800     
	-800     
	-800     
	-800     
	-800     
	-800     
	-800     
	-800     
	-800     
	-800     
	-800     
	-800     
	-800     
	-800     
	-800     
	-800     
	-800     
	-800     
	-800     
	-800     
	-800     
	-800     
	-800     
	-800     
	-800     
	-800     
	-800     
	-800     
	-800     
	-800     
	-800     
	-800     
	-800     
	-800     
	-800     
	-800     
	-800     
	-800     
	-800     
	-800     
	-800     
	-800     
	-800     
	-800     
	-800     
	-800     
	-800     
	-800     
	-800     
	-800     
	-800     
	-800     
	-800     
	-800     
	-800     
	-800     
	-800     
	-800     
	-800     
	-800     
	-610.985 
	-445.633 
	-267.787 
	-98.0081 
	-350.1   
	-651.401 
	-800     
	-800     
	-800     
	-800     
	-800     
	-800     
	-800     
	-800     
	-800     
	-800     
	-800     
	-800     
	-800     
	-800     
	-800     
	-800     
	-800     
	-800     
	-800     
	-800     
	-800     
	-800     
	-800     
	-698.601 
	-800     
	-800     
	-637.828 
	-498.865 
	-501.095 
	-749.208 
	-800     
	-800     
	-800     
	-800     
	-800     
	-800     
	-800     
	-800     
	-800     
	-800     
	-800     
	-800     
	-800     
	-800     
	-800     
	-800     
	-800     
	-800     
	-800     
	-800     
	-736.729 
	-684.534 
	-800     
	-800     
	-756.632 
	-800     
	-800     
	-642.878 
	-723.205 
	-800     
	-618.404 
	-633.434 
	-800     
	-800     
	-800     
	-576.226 
	-232.421 
	-352.889 
	-458.374 
	-201.209 
	-9.40869 
	-3.8298  
	95.0831  
	341.668  
	301.779  
	-345.665 
	-800     
	-800     
	-722.855 
	-713.566 
	-669.829 
	-616.638 
	-625.866 
	-680.639 
	-777.36  
	-800     
	-800     
	-800     
	-800     
	-800     
	-800     
	-800     
	-800     
	-800     
	-800     
	-800     
	-800     
	-800     
	-794.09  
	-739.689 
	-699.562 
	-460.991 
	-307.337 
	-309.343 
	-230.172 
	-396.914 
	-541.659 
	-476.489 
	-589.863 
	-754.44  
	-800     
	-800     
	-787.116 
	-800     
	-800     
	-800     
	-739.834 
	-454.576 
	-588.724 
	-665.397 
	-591.823 
	-515.291 
	-484.562 
	-565.725 
	-800     
	-800     
	-697.633 
	-800     
	-800     
	-800     
	-800     
	-715.679 
	-558.666 
	-606.737 
	-688.864 
	-539.902 
	-468.955 
	-431.46  
	-282.496 
	-316.038 
	-158.778 
	212.436  
	354.284  
	417.692  
	237.167  
	-69.315  
	-53.3789 
	50.8227  
	-167.085 
	-649.664 
	-713.735 
	-551.579 
	-477.537 
	-442.684 
	-363.75  
	-203.108 
	-475.246 
	-800     
	-800     
	-800     
	-800     
	-800     
	-800     
	-800     
	-800     
	-800     
	-800     
	-650.21  
	-441.782 
	-388.387 
	-345.921 
	-294.536 
	-265.346 
	-250.406 
	-88.9287 
	8.82755  
	-186.293 
	-458.414 
	-485.21  
	-278.362 
	-459.453 
	-800     
	-800     
	-800     
	-800     
	-800     
	-727.689 
	-684.584 
	-733.125 
	-738.426 
	-612.713 
	-315.67  
	73.938   
	-7.83822 
	-136.608 
	50.6311  
	-102.055 
	-348.212 
	-692.738 
	-800     
	-352.578 
	-332.059 
	-356.361 
	-298.199 
	-481.253 
	-278.754 
	-239.373 
	-260.142 
	-9.57062 
	-3.82068 
	-146.086 
	-60.0766 
	42.2352  
	-329.491 
	-623.782 
	-663.852 
	-709.968 
	-499.232 
	-302.382 
	-240.639 
	-186.965 
	-125.586 
	-0.418055
	-50.9555 
	-178.595 
	-211.943 
	-289.4   
	-369.198 
	-460.481 
	-570.153 
	-686.57  
	-777.108 
	-700.641 
	-624.025 
	-654.923 
	-586.028 
	-394.136 
	-280.463 
	-330.18  
	-299.8   
	-140.815 
	-94.4996 
	-27.2217 
	121.664  
	157.631  
	53.0619  
	-297.733 
	-514.74  
	-406.644 
	-455.123 
	-430.508 
	-291.058 
	-230.556 
	-191.754 
	-330.958 
	-142.938 
	136.511  
	-37.2153 
	-122.026 
	-265.679 
	-344.4   
	-121.475 
	-133.295 
	-127.215 
	-220.124 
	-514.817 
	-354.036 
	-224.56  
	-265.528 
	-128.608 
	-159.196 
	-173.945 
	-257.498 
	-299.185 
	-69.7112 
	-25.3344 
	172.647  
	140.223  
	-104.147 
	83.0064  
	-87.8143 
	-314.242 
	-176.279 
	-245.242 
	-531.569 
	-495.908 
	18.5808  
	307.068  
	219.193  
	194.852  
	166.045  
	13.7026  
	-124.547 
	-213.12  
	-283.745 
	-422.801 
	-545.569 
	-464.952 
	-382.732 
	-408.231 
	-349.093 
	-220.212 
	-136.281 
	-78.4373 
	67.5446  
	218.983  
	166.886  
	14.9565  
	-60.1961 
	-65.3999 
	-134.523 
	-345.008 
	-433.873 
	-399.127 
	-479.768 
	-511.352 
	-503.315 
	-488.146 
	-299.708 
	-122.308 
	-71.9778 
	-24.8649 
	2.52432  
	-20.2373 
	-51.8831 
	-42.7118 
	17.9072  
	115.243  
	80.9267  
	-49.4741 
	6.18197  
	155.102  
	419.623  
	474.932  
	153.514  
	179.713  
	403.967  
	382.498  
	293.554  
	72.2863  
	-243.47  
	-278.866 
	-347.733 
	-477.911 
	-183.049 
	80.8166  
	177.326  
	48.6217  
	-314.092 
	-309.402 
	-105.227 
	-90.0766 
	-121.713 
	50.4736  
	183.578  
	173.378  
	69.7794  
	-120.7   
	21.7763  
	271.987  
	173.374  
	-229.43  
	-392.759 
	-159.767 
	-85.6827 
	-135.816 
	-190.439 
	-220.106 
	-238.521 
	-255.438 
	-126.44  
	-22.1491 
	171.533  
	311.361  
	73.571   
	49.4071  
	216.149  
	149.593  
	308.023  
	572.086  
	597.813  
	517.318  
	364.46   
	343.235  
	357.833  
	290.229  
	290.243  
	169.521  
	-42.8052 
	-116.044 
	-167.827 
	-143.461 
	47.8156  
	-176.745 
	-675.063 
	-632.935 
	-454.663 
	-466.124 
	-412.902 
	-330.438 
	-238.227 
	-241.558 
	-229.176 
	-42.5669 
	227.888  
	485.857  
	558.237  
	436.034  
	380.503  
	496.912  
	385.874  
	57.1356  
	132.299  
	310.226  
	150.782  
	121.058  
	90.463   
	-87.6159 
	-62.8402 
	28.6716  
	136.694  
	27.9208  
	-241.531 
	-239.295 
	-236.698 
	-299.619 
	-135.342 
	67.8955  
	201.601  
	493.694  
	652.208  
	718.688  
	799.976  
	799.976  
	799.976  
	800      
	354.258  
	362.127  
	455.375  
	215.167  
	-144.592 
	-252.689 
	-87.8414 
	-83.6756 
	-157.081 
	-185.054 
	-302.563 
	-411.045 
	-428.076 
	-517.223 
	-618.935 
	-599.963 
	-603.32  
	-583.182 
	-457.42  
	-304.284 
	-136.949 
	119.683  
	323.538  
	310.196  
	328.465  
	419.752  
	465.791  
	508.378  
	444.515  
	300.99   
	288.276  
	331.295  
	315.767  
	246.072  
	243.267  
	243.321  
	-60.953  
	-146.353 
	97.5162  
	153.529  
	334.807  
	514.475  
	326.791  
	218.074  
	283.275  
	295.254  
	362.163  
	374.529  
	220.477  
	63.9829  
	25.2512  
	40.7407  
	79.5921  
	167.055  
	181.887  
	97.2727  
	-40.4274 
	51.7982  
	326.71   
	324.021  
	152.404  
	250.145  
	751.47   
	707.516  
	63.0875  
	-45.8399 
	210.962  
	495.794  
	386.88   
	-70.9132 
	-43.8762 
	200.629  
	222.471  
	142.342  
	88.6816  
	118.028  
	190.93   
	111.152  
	-98.8202 
	-167.783 
	-83.6098 
	67.504   
	249.724  
	312.963  
	221.029  
	245.613  
	463.181  
	511.456  
	381.976  
	486.21   
	694.374  
	613.672  
	415.655  
	390.335  
	446.381  
	518.835  
	391.17   
	23.1031  
	-71.6021 
	60.3177  
	51.9355  
	-38.141  
	-214.173 
	-408.239 
	-397.957 
	-207.761 
	-83.4143 
	-120.941 
	-105.737 
	29.7837  
	194.44   
	227.465  
	198.255  
	213.321  
	195.479  
	284.772  
	324.749  
	274.16   
	298.692  
	305.105  
	280.09   
	414.542  
	599.011  
	591.199  
	564.937  
	522.505  
	475.543  
	413.401  
	324.887  
	194.002  
	20.0451  
	-85.4108 
	-11.9791 
	228.49   
	230.621  
	256.967  
	420.147  
	389.574  
	333.057  
	265.793  
	133.092  
	257.724  
	495.88   
	249.108  
	13.8011  
	203.538  
	273.449  
	286.422  
	416.545  
	357.026  
	493.967  
	799.976  
	799.976  
	375.764  
	532.475  
	736.308  
	636.526  
	799.976  
	799.976  
	799.976  
	734.257  
	436.058  
	534.483  
	224.831  
	-124.458 
	-162.127 
	-291.826 
	-125.294 
	76.7046  
	1.11852  
	-28.7382 
	-145.298 
	-148.317 
	-46.2288 
	-146.925 
	-221.041 
	-248.943 
	-168.227 
	85.8304  
	101.133  
	-203.093 
	-175.66  
	220.611  
	335.906  
	423.325  
	455.089  
	299.885  
	497.155  
	625.222  
	483.039  
	338.953  
	276.654  
	396.331  
	315.118  
	167.788  
	128.055  
	121.863  
	197.416  
	90.3329  
	15.6967  
	112.622  
	171.436  
	175.869  
	165.293  
	233.935  
	322.448  
	328.743  
	280.292  
	390.402  
	426.74   
	330.079  
	523.634  
	647.164  
	476.231  
	318.864  
	444.585  
	660.729  
	799.976  
	799.976  
	680.729  
	356.874  
	273.198  
	246.585  
	340.782  
	264.503  
	199.734  
	390.754  
	399.774  
	405.069  
	530.383  
	444.6    
	352.808  
	385.9    
	470.566  
	458.946  
	417.787  
	465.172  
	251.41   
	178.3    
	281.26   
	373.538  
	542.571  
	590.916  
	578.826  
	212.162  
	161.004  
	536.908  
	452.869  
	277.497  
	81.5774  
	-164.536 
	-130.639 
	46.9545  
	140.528  
	112.115  
	-1.46546 
	-50.4887 
	43.4876  
	74.8701  
	28.7031  
	63.6989  
	251.463  
	409.75   
	491.956  
	420.734  
	85.2471  
	29.865   
	200.253  
	321.904  
	430.13   
	399.563  
	272.952  
	124.847  
	263.25   
	451.151  
	293.002  
	154.519  
	255.157  
	410.682  
	472.446  
	624.756  
	799.976  
	599.26   
	589.984  
	395.573  
	229.529  
	568.474  
	683.284  
	550.26   
	501.88   
	505.495  
	799.976  
	799.976  
	462.687  
	485.986  
	611.465  
	576.311  
	329.582  
	304.155  
	273.044  
	-8.38193 
	186.884  
	518.738  
	369.414  
	252.567  
	252.506  
	225.297  
	260.606  
	224.503  
	215.056  
	255.847  
	198.192  
	108.279  
	204.761  
	182.935  
	41.2441  
	219.343  
	201.441  
	123.888  
	293.343  
	240.74   
	230.529  
	405.832  
	495.241  
	464.307  
	442.211  
	570.284  
	799.976  
	799.976  
	799.976  
	558.965  
	407.858  
	559.558  
	542.917  
	383.205  
	275.187  
	305.059  
	554.029  
	541.155  
	180.392  
	-123.471 
	-71.2851 
	95.4158  
	41.6488  
	67.9126  
	128.64   
	59.3711  
	-36.4025 
	-10.9916 
	256.087  
	528.174  
	476.616  
	224.88   
	247.481  
	432.728  
	799.976  
	799.976  
	799.976  
	597.186  
	387.468  
	438.105  
	568.479  
	637.654  
	523.96   
	224.109  
	95.7312  
	11.2309  
	2.77041  
	165.283  
	289.78   
	236.159  
	196.81   
	305.492  
	290.696  
	305.1    
	403.235  
	330.863  
	340.093  
	442.017  
	497.039  
	799.976  
	799.976  
	482.98   
	557.023  
	799.976  
	562.241  
	633.623  
	547.621  
	394.901  
	366.595  
	-43.6223 
	-190.252 
	182.143  
	193.02   
	91.7013  
	94.4797  
	93.8626  
	278.106  
	164.627  
	-102.058 
	69.994   
	254.673  
	239.9    
	423.649  
	799.976  
	799.976  
	799.976  
	599.978  
	799.976  
	799.976  
	799.976  
	799.976  
	799.976  
	799.976  
	799.976  
	401.133  
	68.854   
	80.3344  
	232.578  
	314.728  
	452.237  
	357.113  
	118.578  
	50.2549  
	21.5983  
	87.7305  
	155.104  
	108.42   
	257.074  
	294.493  
	98.956   
	100.062  
	231.097  
	358.081  
	423.213  
	450.294  
	464.763  
	480.619  
	537.3    
	475.944  
	271.552  
	74.034   
	54.4792  
	129.062  
	182.552  
	88.7415  
	-44.4058 
	-39.4927 
	-187.984 
	-213.704 
	-33.0511 
	95.3325  
	282.769  
	324.359  
	400.433  
	621.271  
	799.976  
	799.976  
	297.992  
	184.719  
	618.532  
	799.976  
	799.976  
	566.803  
	799.976  
	799.976  
	799.976  
	799.976  
	799.976  
	799.976  
	799.976  
	462.146  
	295.367  
	209.075  
	234.511  
	218.752  
	188.095  
	256.742  
	324.529  
	437.433  
	546.295  
	551.68   
	523.347  
	512.531  
	450.441  
	474.3    
	799.976  
	799.976  
	470.259  
	449.177  
	389.402  
	402.058  
	342.957  
	-60.093  
	-225.18  
	136.524  
	551.33   
	432.286  
	-91.0091 
	-147.449 
	110.374  
	225.56   
	281.478  
	181.725  
	80.7202  
	-89.0473 
	-320.351 
	-237.037 
	-24.3633 
	9.635    
	9.59245  
	137.262  
	208.688  
	314.201  
	466.955  
	799.976  
	799.976  
	799.976  
	521.394  
	799.976  
	799.976  
	428.871  
	332.084  
	463.853  
	565.396  
	595.137  
	513.597  
	534.898  
	799.976  
	467.083  
	219.316  
	400.446  
	496.231  
	470.441  
	541.703  
	198.719  
	163.416  
	799.976  
	425.044  
	154.039  
	382.805  
	473.013  
	461.194  
	409.86   
	338.134  
	441.183  
	509.841  
	458.952  
	312.228  
	160.391  
	269.653  
	220.704  
	88.1128  
	133.241  
	282.922  
	799.976  
	799.976  
	799.976  
	446.052  
	132.006  
	126.659  
	-152.784 
	-268.451 
	33.9188  
	149.078  
	345.731  
	383.519  
	415.188  
	799.976  
	799.976  
	799.976  
	799.976  
	799.976  
	408.624  
	172.822  
	9.2224   
	61.8897  
	185.923  
	395.239  
	478.667  
	344.809  
	315.939  
	351.491  
	260.435  
	16.0579  
	-81.7317 
	127.161  
	128.604  
	-170.526 
	-104.544 
	82.8057  
	48.9656  
	195.854  
	440.981  
	553.129  
	799.976  
	799.976  
	403.471  
	234.217  
	428.538  
	405.852  
	424.38   
	799.976  
	799.976  
	799.976  
	799.976  
	799.976  
	799.976  
	799.976  
	799.976  
	799.976  
	217.33   
	-181.459 
	-2.55022 
	-11.4725 
	-126.308 
	59.8383  
	164.68   
	215.615  
	14.5682  
	-230.565 
	-77.5643 
	89.8069  
	94.2476  
	312.565  
	799.976  
	799.976  
	536.422  
	494.141  
	547.675  
	419.736  
	318.186  
	411.906  
	74.6063  
	-13.7568 
	235.107  
	422.109  
	799.976  
	799.976  
	554.903  
	-89.8474 
	-294.392 
	-9.73021 
	77.413   
	376.009  
	171.927  
	-729.11  
	-800     
	-554.41  
	-234.793 
	197.859  
	473.08   
	799.976  
	799.976  
	799.976  
	799.976  
	799.976  
	799.976  
	799.976  
	799.976  
	520.483  
	526.965  
	519.46   
	488.309  
	799.976  
	501.12   
	491.346  
	402.32   
	314.217  
	351.48   
	5.17142  
	-198.138 
	128.393  
	156.981  
	-161.496 
	-120.02  
	70.6032  
	210.304  
	353.79   
	71.3825  
	-60.854  
	307.029  
	438.894  
	470.36   
	542.134  
	421.694  
	252.235  
	308.688  
	799.976  
	799.976  
	799.976  
	799.976  
	456.111  
	354.712  
	161.354  
	-67.958  
	137.933  
	799.976  
	799.976  
	799.976  
	799.976  
	799.976  
	799.976  
	532.125  
	297.309  
	295.188  
	226.922  
	235.885  
	799.976  
	799.976  
	499.327  
	256.817  
	0.104693 
	27.6664  
	153.448  
	117.548  
	187.377  
	285.125  
	320.71   
	243.396  
	52.2723  
	143.006  
	-83.9296 
	-494.37  
	-417.192 
	-183.983 
	179.4    
	236.186  
	-18.9997 
	30.8914  
	250.816  
	217.464  
	56.4391  
	184.117  
	300.579  
	284.402  
	251.133  
	299.808  
	432.32   
	297.428  
	302.307  
	477.377  
	472.208  
	476.855  
	464.858  
	392.053  
	420.876  
	493.426  
	499.155  
	799.976  
	799.976  
	799.976  
	799.976  
	799.976  
	799.976  
	-458.891 
	-800     
	-209.03  
	-87.4853 
	-116.346 
	151.687  
	205.013  
	-13.1612 
	-216.948 
	-316.299 
	-450.707 
	-549.568 
	-379.624 
	23.2757  
	520.395  
	799.976  
	799.976  
	799.976  
	297.967  
	298.674  
	441.018  
	196.642  
	150.563  
	236.136  
	277.838  
	324.731  
	217.456  
	232.925  
	433.761  
	799.976  
	520.507  
	347.106  
	375.087  
	220.838  
	186.445  
	290.707  
	16.4912  
	39.8023  
	435.545  
	799.976  
	799.976  
	799.976  
	799.976  
	799.976  
	799.976  
	277.402  
	334.198  
	799.976  
	799.976  
	799.976  
	107.341  
	-64.6474 
	-58.7692 
	-9.68123 
	36.6556  
	-257.887 
	-216.936 
	-54.5703 
	170.028  
	436.887  
	288.839  
	503.911  
	450.228  
	-167.543 
	-110.25  
	184.626  
	397.31   
	799.976  
	799.976  
	799.976  
	116.112  
	-162.091 
	-170.859 
	-175.245 
	-265.625 
	-47.7754 
	196.933  
	119.022  
	5.28183  
	152.838  
	374.411  
	336.826  
	284.652  
	255.164  
	194.364  
	254.999  
	188.029  
	99.0371  
	174.682  
	314.016  
	366.694  
	799.976  
	799.976  
	799.976  
	133.337  
	91.9866  
	174.938  
	134.9    
	42.5934  
	-394.697 
	-312.242 
	-79.6706 
	-322.089 
	-160.575 
	79.6629  
	218.932  
	400.013  
	405.918  
	456.642  
	799.976  
	799.976  
	799.976  
	799.976  
	799.976  
	235.896  
	194.109  
	250.793  
	51.8263  
	27.3132  
	71.4339  
	143.009  
	454.433  
	799.976  
	465.308  
	362.818  
	267.911  
	272.407  
	288.747  
	-288.914 
	-325.175 
	210.358  
	481.263  
	438.867  
	-86.8803 
	-168.036 
	269.71   
	192.321  
	50.49    
	193.497  
	194.547  
	132.544  
	-24.0036 
	-282.284 
	-476.002 
	-485.617 
	-181.838 
	7.41303  
	-190.12  
	-90.5629 
	358.55   
	367.996  
	355.936  
	799.976  
	331.142  
	306.542  
	799.976  
	799.976  
	481.116  
	330.985  
	350.484  
	799.976  
	485.12   
	195.855  
	158.752  
	34.815   
	-348.093 
	-548.492 
	-388.989 
	-134.711 
	-35.1856 
	-8.77696 
	303.445  
	799.976  
	799.976  
	799.976  
	799.976  
	799.976  
	799.976  
	799.976  
	799.976  
	799.976  
	799.976  
	415.999  
	217.647  
	393.462  
	374.769  
	123.591  
	-32.2573 
	-214.105 
	-262.386 
	-359.456 
	-218.968 
	-86.6001 
	-430.741 
	-596.983 
	-507.099 
	-588.292 
	-484.424 
	-193.062 
	-271.115 
	-280.824 
	-59.9949 
	-129.396 
	-54.6865 
	195.864  
	465.113  
	799.976  
	404.747  
	144.902  
	799.976  
	799.976  
	468.006  
	315.509  
	-96.4655 
	88.1859  
	352.736  
	254.312  
	279.174  
	327.65   
	799.976  
	799.976  
	799.976  
	799.976  
	799.976  
	362.668  
	473.28   
	799.976  
	799.976  
	253.186  
	-196.111 
	-303.33  
	-103.996 
	375.094  
	799.976  
	390.607  
	3.24811  
	-20.4661 
	274.607  
	456.51   
	492.016  
	200.445  
	-280.144 
	-78.9994 
	-155.585 
	-311.199 
	-138.338 
	-130.712 
	-230.493 
	-139.909 
	287.832  
	490.077  
	799.976  
	799.976  
	188.314  
	-18.9992 
	-97.1123 
	193.446  
	365.136  
	100.951  
	-65.3909 
	-362.277 
	-473.696 
	-226.087 
	-58.5826 
	150.437  
	414.577  
	400.234  
	334.917  
	799.976  
	799.976  
	799.976  
	799.976  
	491.705  
	326.749  
	13.8051  
	-61.9063 
	-4.81213 
	-53.9266 
	-58.6056 
	-13.079  
	-173.548 
	-128.219 
	213.863  
	204.265  
	316.445  
	799.976  
	799.976  
	799.976  
	265.895  
	-34.8355 
	-380.293 
	-558.192 
	-622.094 
	-581.7   
	174.592  
	799.976  
	799.976  
	799.976  
	799.976  
	799.976  
	799.976  
	799.976  
	799.976  
	799.976  
	799.976  
	799.976  
	799.976  
	368.928  
	452.626  
	311.646  
	2.02383  
	-82.6901 
	-159.903 
	22.2097  
	376.789  
	116.875  
	-93.5714 
	-63.5892 
	-294.306 
	-479.148 
	-600.468 
	-554.115 
	-500.801 
	-549.2   
	-340.499 
	-210.683 
	-112.941 
	29.2281  
	-207.493 
	-242.664 
	46.8514  
	-25.3857 
	-219.027 
	-81.8537 
	288.679  
	485.946  
	488.103  
	312.836  
	-138.037 
	-320.661 
	-227.297 
	-62.7658 
	345.342  
	391.302  
	174.24   
	455.336  
	799.976  
	799.976  
	462.551  
	352.7    
	155.004  
	267.838  
	467.12   
	491.947  
	799.976  
	799.976  
	799.976  
	382.553  
	51.5772  
	384.662  
	799.976  
	799.976  
	799.976  
	419.865  
	-10.2336 
	-62.2648 
	-269.057 
	-12.1509 
	296.248  
	242.59   
	235.401  
	252.373  
	311.875  
	799.976  
	480.439  
	250.794  
	326.787  
	88.6509  
	-81.6682 
	75.6861  
	-2.80063 
	63.9386  
	290.265  
	171.957  
	-284.113 
	-494.512 
	-458.554 
	-430.908 
	-275.237 
	-154.715 
	-118.568 
	71.5642  
	364.171  
	403.998  
	331.527  
	331.853  
	300.909  
	33.3088  
	-238.543 
	-219.118 
	-132.116 
	148.166  
	799.976  
	363.821  
	287.011  
	799.976  
	345.545  
	49.1765  
	16.2291  
	-154.905 
	-383.279 
	-357.482 
	-237.512 
	-63.4243 
	-192.894 
	-355.317 
	-196.081 
	-190.638 
	21.2408  
	407.579  
	799.976  
	799.976  
	799.976  
	799.976  
	799.976  
	799.976  
	799.976  
	799.976  
	799.976  
	799.976  
	799.976  
	306.759  
	-148.834 
	-296.144 
	-670.208 
	-800     
	-706.017 
	-455.507 
	-299.911 
	-352.348 
	-213.63  
	-58.2469 
	-39.6487 
	167.36   
	52.6503  
	-106.21  
	192.658  
	149.903  
	-336.932 
	-328.711 
	302.32   
	799.976  
	403.241  
	492.581  
	799.976  
	799.976  
	799.976  
	212.375  
	-145.427 
	-192.74  
	-279.477 
	-505.689 
	-481.321 
	-261.382 
	-386.21  
	-510.023 
	-280.615 
	-123.179 
	-308.782 
	-429.765 
	-19.9167 
	274.277  
	-13.8106 
	-64.7131 
	322.47   
	461.184  
	479.804  
	799.976  
	799.976  
	799.976  
	799.976  
	477.143  
	294.067  
	278.171  
	-96.1711 
	-458.099 
	-619.022 
	-465.996 
	-530.559 
	-796.812 
	-572.278 
	-491.782 
	-232.115 
	476.078  
	799.976  
	449.326  
	799.976  
	799.976  
	420.746  
	384.513  
	380.74   
	395.461  
	-72.641  
	-565.301 
	-773.267 
	-800     
	-393.448 
	-33.8653 
	-42.4359 
	-94.6015 
	-536.292 
	-618.527 
	-550.042 
	-743.768 
	-649.851 
	-800     
	-800     
	-551.501 
	-427.629 
	-416.115 
	-476.064 
	-428.824 
	-222.253 
	-98.0734 
	242.415  
	354.377  
	312.025  
	799.976  
	799.976  
	799.976  
	419.879  
	124.98   
	46.0835  
	-360.139 
	-438.926 
	-259.873 
	-532.758 
	-566.17  
	-670.082 
