Date: 09.03.26
Time: 16:47:01
Client: 
Session: 
Device: Neurobit Optima+ 4 USB
Signals: 1
Channel	A
Min	-800
Max	800
Unit	uV
SR	1000
Label	EMG
Sensor	AgAgCl
	534.424  
	-219.495 
	-195.617 
	-279.154 
	-512.025 
	-636.723 
	-633.742 
	-544.959 
	-532.932 
	-575.514 
	-594.162 
	-568.309 
	-461.649 
	-358.044 
	-460.275 
	-684.122 
	-710.809 
	-657.54  
	-712.815 
	-720.399 
	-730.992 
	-724.907 
	-683.295 
	-765.181 
	-800     
	-800     
	-778.733 
	-612.357 
	-578.812 
	-517.451 
	-422.228 
	-638.586 
	-661.944 
	-445.982 
	-564.608 
	-618.79  
	-495.376 
	-534.638 
	-478.995 
	-255.011 
	-41.3038 
	120.657  
	192.945  
	799.976  
	799.976  
	8.20895  
	-594.436 
	-765.517 
	-800     
	-633.877 
	-636.316 
	-800     
	-689.619 
	-551.192 
	-562.861 
	-638.315 
	-749.066 
	-800     
	-800     
	-800     
	-800     
	-800     
	-800     
	-800     
	-800     
	-800     
	-800     
	-662.811 
	-485.117 
	-533.692 
	-463.781 
	-414.93  
	-530.542 
	-357.902 
	-282.152 
	-463.918 
	-543.022 
	-651.393 
	-646.823 
	-627.115 
	-770.743 
	-800     
	-772.99  
	-749.8   
	-675.58  
	-572.181 
	-397.243 
	-248.318 
	-211.508 
	-138.375 
	-31.1593 
	103.392  
	276.422  
	799.976  
	799.976  
	270.681  
	-19.7409 
	23.3465  
	-309.391 
	-787.239 
	-800     
	-800     
	-683.368 
	-332.654 
	-350.222 
	-435.175 
	-467.721 
	-627.016 
	-698.227 
	-800     
	-800     
	-800     
	-800     
	-541.744 
	-453.451 
	-494.11  
	-271.025 
	-20.3107 
	10.7286  
	86.2962  
	213.674  
	-23.0777 
	-278.335 
	-237.224 
	-353.805 
	-569.511 
	-661.66  
	-800     
	-800     
	-702.818 
	-800     
	-800     
	-800     
	-800     
	-800     
	-800     
	-800     
	-800     
	-800     
	-800     
	-510.405 
	-475.101 
	-492.303 
	-257.514 
	-142.293 
	-22.9231 
	68.0011  
	-139.451 
	-170.018 
	3.79562  
	-6.13869 
	-121.911 
	-248.637 
	-357.611 
	-526.138 
	-757.959 
	-776.97  
	-680.307 
	-715.245 
	-722.702 
	-657.386 
	-632.049 
	-658.883 
	-712.399 
	-634.541 
	-527.927 
	-557.055 
	-574.762 
	-545.921 
	-528.94  
	-468.551 
	-333.444 
	-321.23  
	-400.627 
	-385.237 
	-307.313 
	-214.389 
	-162.959 
	18.6467  
	180.836  
	-26.7309 
	-300.543 
	-319.026 
	-232.154 
	-272.62  
	-263.179 
	-269.585 
	-487.28  
	-603.804 
	-601.837 
	-535.7   
	-356.855 
	-201.592 
	-237.408 
	-184.569 
	142.058  
	-144.243 
	-763.309 
	-794.628 
	-716.566 
	-653.823 
	-472.438 
	-334.47  
	-364.841 
	-501.597 
	-494.578 
	-596.429 
	-686.04  
	-559.913 
	-601.932 
	-709.143 
	-708.587 
	-665.713 
	-658.873 
	-703.998 
	-727.477 
	-785.376 
	-737.723 
	-586.815 
	-495.975 
	-472.161 
	-549.249 
	-516.383 
	-323.184 
	-69.3472 
	88.3741  
	-148.849 
	-442.529 
	-500.283 
	-428.142 
	-314.941 
	-341.617 
	-429.39  
	-454.387 
	-475.482 
	-432.365 
	-324.229 
	-260.128 
	-237.174 
	-273.655 
	-255.626 
	-145.36  
	-171.965 
	-178.031 
	-129.597 
	-184.501 
	-91.7839 
	-132.588 
	-288.075 
	-10.6446 
	62.7926  
	-305.362 
	-401.961 
	-248.125 
	-23.4546 
	237.476  
	47.7054  
	-383.179 
	-311.357 
	-294.989 
	-597.59  
	-600.195 
	-513.256 
	-462.433 
	-466.147 
	-582.053 
	-537.613 
	-520.477 
	-516.837 
	-458.739 
	-416.824 
	-120.273 
	112.206  
	95.4815  
	396.141  
	799.976  
	-24.1565 
	-554.372 
	-684.795 
	-634.747 
	-571.304 
	-551.885 
	-456.964 
	-470.591 
	-475.314 
	-374.341 
	-416.832 
	-478.951 
	-507.439 
	-679.684 
	-800     
	-765.974 
	-696.796 
	-614.748 
	-633.81  
	-753.083 
	-651.172 
	-440.572 
	-340.738 
	-261.215 
	-279.089 
	-298.466 
	-142.508 
	-13.3328 
	-56.3822 
	-95.1309 
	-106.318 
	-247.854 
	-237.191 
	-155.985 
	-309.672 
	-366.09  
	-361.376 
	-506.846 
	-630.041 
	-593.608 
	-341.822 
	-55.9489 
	39.2085  
	8.52379  
	-120.375 
	-238.615 
	-226.506 
	-228.275 
	-252.626 
	-238.856 
	-222.552 
	-297.574 
	-363.893 
	-353.402 
	-363.858 
	-197.435 
	-34.1065 
	-259.513 
	-361.515 
	-57.5797 
	-94.5943 
	-401.377 
	-536.235 
	-571.786 
	-387.947 
	-321.311 
	-316.656 
	-257.716 
	-473.164 
	-485.59  
	-240.178 
	-192.944 
	-155.457 
	-52.6238 
	-51.7441 
	1.98939  
	31.2061  
	-153.395 
	-349.162 
	-431.896 
	-442.375 
	-188.923 
	127.029  
	-33.3137 
	-212.135 
	-262.859 
	-428.369 
	-286.166 
	-188.673 
	-435.496 
	-409.747 
	-208.139 
	-256.797 
	-166.993 
	-156.775 
	-569.567 
	-614.909 
	-325.082 
	-372.154 
	-476.431 
	-384.896 
	-114.162 
	81.4013  
	-80.3184 
	-91.7772 
	-147.289 
	-274.04  
	-5.14863 
	120.158  
	105.638  
	-19.565  
	-310.952 
	-370.344 
	-363.207 
	-253.738 
	-14.2272 
	108.804  
	203.602  
	245.317  
	182.682  
	173.849  
	31.9315  
	-276.676 
	-305.692 
	-248.016 
	-293.33  
	-347.755 
	-232.9   
	157.942  
	89.349   
	-274.929 
	-474.222 
	-651.456 
	-590.299 
	-523.526 
	-568.199 
	-541.371 
	-401.224 
	-273.635 
	-249.118 
	-183.744 
	-253.936 
	-437.147 
	-432.786 
	-285.77  
	-244.986 
	-150.863 
	64.3798  
	-63.4775 
	-296.902 
	-235.706 
	-81.1838 
	-74.0549 
	-154.162 
	-156.628 
	-221.798 
	-265.991 
	-248.318 
	-228.118 
	-262.787 
	-330.903 
	-293.303 
	-335.459 
	-225.115 
	-147.81  
	-603.132 
	-800     
	-605.918 
	-342.328 
	-188.044 
	-23.952  
	64.096   
	164.198  
	268.453  
	283.777  
	213.044  
	118.396  
	215.054  
	330.335  
	252.637  
	216.794  
	-86.1616 
	-567.113 
	-524.189 
	-416.099 
	-379.192 
	-64.7351 
	-116.127 
	-221.96  
	106.883  
	115.609  
	10.8756  
	255.107  
	442.998  
	517.678  
	537.483  
	505.274  
	361.78   
	16.7943  
	-107.12  
	-102.698 
	-33.2094 
	177.47   
	223.137  
	89.4924  
	37.8098  
	43.8119  
	-235.719 
	-489.137 
	-479.385 
	-612.754 
	-742.14  
	-800     
	-800     
	-800     
	-800     
	-800     
	-800     
	-800     
	-732.399 
	-642.406 
	-601.364 
	-480.91  
	-329.023 
	-124.2   
	-81.843  
	-131.056 
	-120.906 
	-178.949 
	-233.003 
	-214.905 
	-267.38  
	-284.73  
	-211.313 
	-333.163 
	-442.587 
	-342.164 
	21.9807  
	488.491  
	799.976  
	799.976  
	341.98   
	316.481  
	420.4    
	19.5459  
	32.5583  
	229.845  
	149.946  
	40.0252  
	-40.6627 
	133.469  
	257.489  
	118.17   
	47.5548  
	40.1234  
	-150.837 
	-309.289 
	-362.342 
	-477.565 
	-375.93  
	-166.044 
	-261.88  
	-381.513 
	-364.159 
	-368.741 
	-354.85  
	-287.228 
	-271.954 
	-396.958 
	-470.164 
	-374.933 
	-282.174 
	-316.253 
	-342.268 
	-421.967 
	-608.909 
	-643.641 
	-610.865 
	-588.786 
	-679.436 
	-800     
	-755.773 
	-713.713 
	-584.827 
	-334.472 
	-254.669 
	-97.0369 
	85.152   
	87.1379  
	110.17   
	164.598  
	91.4803  
	-45.5991 
	-105.564 
	-117.756 
	-165.95  
	-175.759 
	-83.303  
	7.02771  
	65.0408  
	44.576   
	-49.0964 
	-152.422 
	-273.822 
	-264.671 
	-101.191 
	41.98    
	-34.3212 
	-147.211 
	-173.032 
	-170.95  
	133.236  
	315.674  
	228.929  
	207.644  
	-13.56   
	-61.3653 
	131.123  
	71.6052  
	-24.7281 
	-23.8278 
	-80.1018 
	-363.936 
	-591.404 
	-551.58  
	-441.22  
	-358.361 
	-354.442 
	-226.794 
	-110.631 
	-252.012 
	-413.299 
	-376.933 
	-282.268 
	-178.294 
	-45.4411 
	110.991  
	407.377  
	196.797  
	-396.715 
	-454.823 
	-383.89  
	-360.605 
	-152.064 
	44.2774  
	235.542  
	286.27   
	163.483  
	243.031  
	279.428  
	-175.992 
	-601.967 
	-662.152 
	-683.807 
	-627.638 
	-421.009 
	-300.187 
	-308.987 
	-396.676 
	-535.933 
	-538.021 
	-407.173 
	-300.134 
	-206.833 
	-150.734 
	-192.378 
	-133.209 
	-89.883  
	-312.014 
	-491.431 
	-362.598 
	-137.688 
	-295.531 
	-465.419 
	-383.344 
	-350.523 
	-63.3402 
	204.227  
	133.913  
	77.1221  
	49.2197  
	21.8334  
	2.08425  
	-114.802 
	-226.052 
	-157.502 
	-51.4455 
	-211.744 
	-479.037 
	-578.649 
	-544.216 
	-313.841 
	-192.514 
	-322.107 
	-234.618 
	-122.416 
	256.876  
	799.976  
	799.976  
	80.8247  
	84.0383  
	177.639  
	-230.758 
	-325.497 
	-373.934 
	-476.549 
	-259.107 
	-212.056 
	-177.29  
	-86.8794 
	-161.279 
	-293.614 
	-511.116 
	-535.837 
	-397.846 
	-389.194 
	-374.508 
	-259.213 
	-295.311 
	-507.591 
	-307.432 
	79.3305  
	143.573  
	200.841  
	364.517  
	645.668  
	799.976  
	362.661  
	172.167  
	181.891  
	143.474  
	30.2486  
	-165.644 
	-88.866  
	-74.6736 
	-151.779 
	-117.126 
	-513.919 
	-800     
	-579.859 
	-456.103 
	-669.909 
	-755.43  
	-580.439 
	-449.219 
	-439.957 
	-478.934 
	-486.08  
	-335.257 
	-228.036 
	-189.824 
	-52.6569 
	-10.5319 
	67.2954  
	173.148  
	2.47422  
	-65.362  
	62.7655  
	140.43   
	108.043  
	-162.926 
	-260.744 
	-74.4418 
	41.3853  
	113.724  
	75.6795  
	-13.0759 
	13.2179  
	-62.7607 
	-325.163 
	-420.31  
	-146.118 
	205.047  
	198.172  
	-45.9897 
	-3.92596 
	86.9625  
	1.79576  
	-78.2591 
	-294.753 
	-375.517 
	-230.804 
	-98.6089 
	-12.5665 
	-131.571 
	-395.356 
	-585.032 
	-447.998 
	-165.778 
	-400.327 
	-599.067 
	-267.707 
	-351.376 
	-568.038 
	-243.347 
	-30.4667 
	-33.5557 
	176.441  
	215.086  
	-6.49783 
	66.8339  
	121.417  
	15.2091  
	-53.1389 
	-291.388 
	-206.641 
	112.052  
	15.0813  
	-61.2912 
	86.0244  
	226.257  
	229.05   
	88.9797  
	66.7625  
	66.5391  
	140.392  
	376.184  
	258.251  
	-178.689 
	-412.458 
	-364.069 
	-192.182 
	-80.3036 
	27.144   
	10.1655  
	-99.1256 
	35.7486  
	-26.3696 
	-344.843 
	-402.536 
	-328.214 
	-199.64  
	123.406  
	239.031  
	77.526   
	208.214  
	418.096  
	392.82   
	38.4577  
	-360.067 
	-183.163 
	-168.695 
	-342.066 
	-166.952 
	-147.588 
	-108.186 
	21.6071  
	-200.465 
	-399.631 
	-170.333 
	-57.106  
	-155.319 
	-114.561 
	-118.394 
	-312.86  
	-489.935 
	-508.963 
	-522.005 
	-552.68  
	-588.737 
	-503.893 
	-297.424 
	-54.2213 
	179.279  
	201.43   
	450.107  
	465.503  
	-324.352 
	-580.578 
	-341.281 
	-434.324 
	-350.697 
	-162.03  
	-111.26  
	-77.439  
	-79.659  
	-96.9728 
	-213.233 
	-366.739 
	-337.071 
	-62.8897 
	194.75   
	234.994  
	265.308  
	300.053  
	208.118  
	110.772  
	-8.51434 
	3.45333  
	86.0837  
	-257.114 
	-418.245 
	16.997   
	208.386  
	45.817   
	156.905  
	589.16   
	696.029  
	337.364  
	108.135  
	107.248  
	111.631  
	119.568  
	39.4858  
	101.389  
	485.625  
	690.985  
	616.29   
	491.075  
	342.73   
	242.642  
	81.423   
	-108.225 
	-207.877 
	-300.83  
	-145.16  
	159.392  
	92.3084  
	-284.366 
	-533.545 
	-599.249 
	-683.781 
	-638.881 
	-733.826 
	-800     
	-800     
	-738.394 
	-625.584 
	-551.549 
	-491.361 
	-328.527 
	-418.179 
	-513.443 
	-383.568 
	-368.064 
	-348.248 
	-304.419 
	-332.822 
	-278.803 
	-255.154 
	-216.306 
	6.57214  
	148.296  
	198.384  
	274.525  
	373.499  
	610.827  
	660.872  
	466.718  
	378.713  
	561.908  
	683.462  
	366.627  
	289.421  
	476.565  
	256.196  
	-39.1992 
	-56.9796 
	-6.50465 
	-162.961 
	-342.074 
	-101.373 
	206.633  
	179.95   
	100.779  
	5.36654  
	-309.8   
	-707.693 
	-757.239 
	-504.974 
	-308.625 
	-199.528 
	-276.105 
	-366.027 
	-286.578 
	-229.89  
	-84.4762 
	-16.144  
	-177.192 
	-124.344 
	83.5069  
	84.9349  
	-36.839  
	-42.3551 
	38.4835  
	-17.5177 
	-145.001 
	-136.337 
	-86.8347 
	-194.675 
	-287.189 
	-261.183 
	-273.643 
	-334.47  
	-375.012 
	-210.251 
	-86.1186 
	-71.9315 
	36.2321  
	-98.0602 
	-206.318 
	-211.149 
	-348.78  
	-310.365 
	-336.61  
	-440.101 
	-301.706 
	-223.159 
	-259.057 
	-4.60862 
	393.462  
	524.359  
	588.812  
	573.238  
	379.736  
	151.672  
	-92.5492 
	-135.303 
	-11.1658 
	102.493  
	-68.8277 
	-475.614 
	-461.815 
	-167.129 
	130.171  
	451.278  
	484.77   
	514.54   
	584.646  
	276.436  
	-307.178 
	-733.027 
	-654.155 
	-571.822 
	-493.229 
	-1.74687 
	64.2586  
	-263.02  
	-140.081 
	-89.9371 
	-157.721 
	-18.2728 
	-33.2144 
	-131.033 
	-302.402 
	-408.177 
	-491.898 
	-660.513 
	-542.874 
	-473.19  
	-539.3   
	-529.844 
	-550.87  
	-437.536 
	-279.267 
	-189.03  
	-46.9859 
	157.134  
	231.206  
	32.7879  
	-42.3008 
	191.933  
	258.427  
	126.082  
	77.5745  
	-19.0384 
	-213.058 
	-341.441 
	-333.699 
	-237.14  
	-106.445 
	1.58826  
	66.002   
	134.977  
	185.652  
	231.035  
	351.481  
	339.428  
	61.8768  
	-61.3658 
	-3.66288 
	-324.886 
	-762.679 
	-655.92  
	-217.011 
	132.41   
	306.824  
	459.178  
	517.388  
	254.355  
	160.458  
	165.96   
	18.6426  
	11.2902  
	-335.035 
	-800     
	-800     
	-705.552 
	-497.093 
	-191.024 
	-110.271 
	-259.995 
	-174.453 
	-24.1926 
	23.44    
	44.177   
	-53.3729 
	-258.596 
	-468.579 
	-427.67  
	-34.5828 
	63.8028  
	-307.915 
	-376.874 
	-350.236 
	-394.796 
	-32.4549 
	491.453  
	799.976  
	522.332  
	67.3084  
	-98.3849 
	-61.808  
	-96.3268 
	-154.001 
	-18.5353 
	151.554  
	40.8989  
	-118.818 
	-125.667 
	-324.608 
	-479.318 
	-274.92  
	-184.301 
	-328.861 
	-368.925 
	-234.689 
	-237.003 
	-306.949 
	-256.734 
	-368.083 
	-570.152 
	-638.348 
	-800     
	-800     
	-800     
	-467.008 
	-342.27  
	-282.574 
	-64.0587 
	134.069  
	114.23   
	129.893  
	315.337  
	452.845  
	275.01   
	159.244  
	372.585  
	517.668  
	641.111  
	642.805  
	389.292  
	204.479  
	-75.9154 
	-314.829 
	-51.861  
	281.833  
	390.037  
	305.372  
	123.864  
	23.9443  
	-185.742 
	-348.568 
	-252.713 
	-250.407 
	-416.038 
	-342.642 
	-288.018 
	-410.748 
	-388.095 
	-447.78  
	-375.031 
	-16.0928 
	315.607  
	572.923  
	584.795  
	415.053  
	-42.5984 
	-616.537 
	-614.887 
	-301.376 
	-7.9936  
	248.201  
	273.051  
	193.119  
	51.4818  
	-232.673 
	-335.726 
	-250.505 
	-263.082 
	-357.541 
	-744.953 
	-800     
	-800     
	-789.843 
	-546.126 
	-172.231 
	-65.0734 
	-75.756  
	-93.7358 
	-70.2168 
	-136.087 
	-382.107 
	-371.532 
	-166.703 
	54.0816  
	322.989  
	357.381  
	31.7941  
	-221.811 
	-202.782 
	-70.8348 
	-84.409  
	-401.163 
	-566.681 
	-492.146 
	-533.732 
	-551.02  
	-375.17  
	-364.463 
	-389.24  
	-128.766 
	24.3598  
	-58.6645 
	-134.678 
	-97.838  
	-267.415 
	-783.392 
	-800     
	-643.764 
	-466.691 
	-487.617 
	-228.494 
	96.8008  
	254.575  
	285.584  
	39.4276  
	-36.0395 
	29.2014  
	-176.421 
	-165.064 
	-19.4555 
	-140.13  
	-505.049 
	-800     
	-800     
	-800     
	-708.079 
	-386.783 
	-361.638 
	-565.012 
	-595.753 
	-478.577 
	-436.967 
	-485.267 
	-632.235 
	-800     
	-800     
	-800     
	-800     
	-800     
	-800     
	-800     
	-800     
	-713.46  
	-437.789 
	-380.743 
	-157.945 
	-71.0099 
	-583.088 
	-800     
	-769.483 
	-593.1   
	-582.226 
	-608.519 
	-496.076 
	-412.065 
	-495.949 
	-485.405 
	-551.711 
	-800     
	-800     
	-800     
	-800     
	-800     
	-651.041 
	-773.72  
	-630.11  
	-356.158 
	-357.12  
	-233.955 
	-22.6294 
	175.517  
	466.05   
	448.707  
	29.238   
	-436.174 
	-800     
	-800     
	-800     
	-707.556 
	-616.219 
	-555.544 
	-545.423 
	-591.64  
	-525.718 
	-485.14  
	-800     
	-800     
	-800     
	-800     
	-800     
	-800     
	-800     
	-800     
	-800     
	-800     
	-800     
	-575.766 
	-497.068 
	-531.718 
	-632.889 
	-655.99  
	-593.264 
	-722.759 
	-718.934 
	-628.575 
	-701.027 
	-620.337 
	-652.535 
	-800     
	-800     
	-800     
	-654.573 
	-490.066 
	-595.682 
	-521.093 
	-613.675 
	-800     
	-602.543 
	-298.811 
	-89.6803 
	-288.859 
	-666.376 
	-556.482 
	-433.844 
	-448.661 
	-257.663 
	-185.37  
	2.42507  
	-119.193 
	-640.132 
	-800     
	-800     
	-800     
	-800     
	-636.584 
	35.5649  
	-110.751 
	-715.879 
	-711.164 
	-676.139 
	-704.841 
	-734.148 
	-800     
	-800     
	-800     
	-800     
	-800     
	-800     
	-800     
	-800     
	-800     
	-800     
	-800     
	-800     
	-800     
	-634.858 
	-617.539 
	-800     
	-800     
	-686.28  
	-667.522 
	-722.656 
	-800     
	-720.318 
	-537.857 
	-496.964 
	-595.299 
	-800     
	-800     
	-800     
	-800     
	-800     
	-609.397 
	-407.705 
	-145.635 
	111.99   
	-65.4225 
	-91.6415 
	-2.83167 
	-294.348 
	-445.115 
	-643.381 
	-800     
	-800     
	-690.682 
	-646.573 
	-612.89  
	-631.955 
	-671.302 
	-800     
	-800     
	-800     
	-800     
	-800     
	-800     
	-800     
	-800     
	-800     
	-800     
	-800     
	-465.127 
	-800     
	-800     
	-800     
	-800     
	-652.159 
	-643.661 
	-615.715 
	-600.213 
	-636.18  
	-685.446 
	-800     
	-800     
	-800     
	-800     
	-800     
	-800     
	-800     
	-607.542 
	-800     
	-800     
	-800     
	-800     
	-800     
	-800     
	-800     
	-800     
	-683.716 
	-657.719 
	-666.675 
	-697.102 
	-800     
	-800     
	-800     
	-800     
	-800     
	-800     
	-800     
	-800     
	-800     
	-800     
	-800     
	-800     
	-800     
	-800     
	-800     
	-800     
	-800     
	-800     
	-800     
	-800     
	-800     
	-800     
	-800     
	-800     
	-800     
	-800     
	-800     
	-800     
	-800     
	-800     
	-800     
	-800     
	-800     
	-800     
	-800     
	-800     
	-800     
	-800     
	-800     
	-800     
	-800     
	-800     
	-800     
	-800     
	-800     
	-800     
	-800     
	-800     
	-800     
	-800     
	-800     
	-800     
	-800     
	-800     
	-800     
	-800     
	-800     
	-800     
	-800     
	-800     
	-800     
	-800     
	-800     
	-800     
	-800     
	-800     
	-800     
	-800     
	-800     
	-800     
	-800     
	-800     
	-800     
	-800     
	-800     
	-800     
	-800     
	-800     
	-800     
	-800     
	-800     
	-800     
	-800     
	-800     
	-800     
	-800     
	-800     
	-800     
	-800     
	-800     
	-800     
	-800     
	-800     
	-800     
	-800     
	-800     
	-800     
	-800     
	-800     
	-800     
	-800     
	-800     
	-800     
	-800     
	-800     
	-800     
	-800     
	-800     
	-800     
	-800     
	-800     
	-800     
	-800     
	-800     
	-800     
	-800     
	-800     
	-800     
	-800     
	-800     
	-800     
	-800     
	-800     
	-800     
	-800     
	-800     
	-800     
	-800     
	-800     
	-800     
	-800     
	-800     
	-800     
	-800     
	-800     
	-800     
	-800     
	-800     
	-800     
	-800     
	-800     
	-800     
	-800     
	-800     
	-800     
	-800     
	-800     
	-800     
	-800     
	-800     
	-800     
	-800     
	-800     
	-800     
	-800     
	-800     
	-800     
	-800     
	-800     
	-800     
	-800     
	-800     
	-800     
	-800     
	-800     
	-800     
	-800     
	-800     
	-800     
	-800     
	-800     
	-800     
	-800     
	-800     
	-800     
	-800     
	-800     
	-800     
	-800     
	-800     
	-800     
	-800     
	-800     
	-800     
	-800     
	-800     
	-800     
	-800     
	-800     
	-800     
	-800     
	-800     
	-800     
	-800     
	-800     
	-800     
	-800     
	-800     
	-800     
	-800     
	-800     
	-800     
	-800     
	-800     
	-800     
	-800     
	-800     
	-800     
	-800     
	-800     
	-800     
	-800     
	-800     
	-800     
	-800     
	-800     
	-800     
	-800     
	-800     
	-800     
	-800     
	-800     
	-800     
	-800     
	-800     
	-800     
	-800     
	-800     
	-800     
	-800     
	-800     
	-800     
	-800     
	-800     
	-800     
	-800     
	-800     
	-800     
	-800     
	-800     
	-800     
	-800     
	-800     
	-800     
	-800     
	-800     
	-800     
	-800     
	-800     
	-800     
	-800     
	-800     
	-800     
	-800     
	-800     
	-800     
	-800     
	-800     
	-800     
	-800     
	-800     
	-800     
	-800     
	-800     
	-800     
	-800     
	-800     
	-800     
	-800     
	-800     
	-800     
	-800     
	-800     
	-800     
	-800     
	-800     
	-800     
	-800     
	-800     
	-800     
	-800     
	-800     
	-800     
	-800     
	-800     
	-800     
	-800     
	-800     
	-800     
	-800     
	-800     
	-800     
	-800     
	-800     
	-800     
	-800     
	-800     
	-800     
	-800     
	-800     
	-800     
	-800     
	-800     
	-800     
	-800     
	-800     
	-800     
	-800     
	-800     
	-800     
	-800     
	-800     
	-800     
	-800     
	-800     
	-800     
	-800     
	-800     
	-800     
	-800     
	-800     
	-800     
	-800     
	-800     
	-800     
	-800     
	-800     
	-800     
	-800     
	-800     
	-800     
	-800     
	-800     
	-800     
	-800     
	-800     
	-800     
	-800     
	-800     
	-800     
	-800     
	-800     
	-800     
	-800     
	-800     
	-800     
	-800     
	-800     
	-800     
	-800     
	-800     
	-800     
	-800     
	-800     
	-800     
	-800     
	-800     
	-800     
	-800     
	-800     
	-800     
	-800     
	-800     
	-800     
	-800     
	-800     
	-800     
	-800     
	-800     
	-800     
	-800     
	-800     
	-800     
	-800     
	-800     
	-800     
	-800     
	-800     
	-800     
	-800     
	-800     
	-800     
	-800     
	-800     
	-800     
	-800     
	-800     
	-800     
	-800     
	-800     
	-800     
	-800     
	-800     
	-800     
	-800     
	-800     
	-800     
	-800     
	-800     
	-800     
	-800     
	-800     
	-800     
	-800     
	-800     
	-800     
	-800     
	-800     
	-800     
	-800     
	-800     
	-800     
	-800     
	-800     
	-800     
	-800     
	-800     
	-800     
	-800     
	-800     
	-800     
	-800     
	-800     
	-800     
	-800     
	-800     
	-800     
	-800     
	-800     
	-800     
	-800     
	-800     
	-800     
	-800     
	-800     
	-800     
	-800     
	-800     
	-800     
	-800     
	-800     
	-800     
	-800     
	-800     
	-800     
	-800     
	-800     
	-800     
	-800     
	-800     
	-800     
	-800     
	-800     
	-800     
	-800     
	-800     
	-800     
	-800     
	-800     
	-800     
	-800     
	-800     
	-800     
	-800     
	-800     
	-800     
	-800     
	-800     
	-800     
	-800     
	-800     
	-800     
	-800     
	-800     
	-800     
	-800     
	-800     
	-800     
	-800     
	-800     
	-800     
	-800     
	-800     
	-800     
	-800     
	-800     
	-800     
	-800     
	-800     
	-800     
	-800     
	-800     
	-800     
	-800     
	-800     
	-800     
	-800     
	-800     
	-800     
	-800     
	-800     
	-800     
	-800     
	-800     
	-800     
	-800     
	-800     
	-800     
	-800     
	-800     
	-800     
	-800     
	-800     
	-800     
	-800     
	-800     
	-800     
	-800     
	-800     
	-800     
	-800     
	-800     
	-800     
	-800     
	-800     
	-800     
	-800     
	-800     
	-800     
	-800     
	-800     
	-800     
	-800     
	-800     
	-800     
	-800     
	-800     
	-800     
	-800     
	-800     
	-800     
	-800     
	-800     
	-800     
	-800     
	-800     
	-800     
	-800     
	-800     
	-800     
	-800     
	-800     
	-800     
	-800     
	-800     
	-800     
	-800     
	-800     
	-800     
	-800     
	-800     
	-800     
	-800     
	-800     
	-800     
	-800     
	-800     
	-800     
	-800     
	-800     
	-800     
	-800     
	-800     
	-800     
	-800     
	-800     
	-800     
	-800     
	-800     
	-800     
	-800     
	-800     
	-800     
	-800     
	-800     
	-800     
	-800     
	-800     
	-800     
	-800     
	-800     
	-800     
	-800     
	-800     
	-800     
	-800     
	-800     
	-800     
	-800     
	-800     
	-800     
	-800     
	-800     
	-800     
	-800     
	-800     
	-800     
	-800     
	-800     
	-800     
	-800     
	-800     
	-800     
	-800     
	-800     
	-800     
	-800     
	-800     
	-800     
	-800     
	-800     
	-800     
	-800     
	-800     
	-800     
	-800     
	-800     
	-800     
	-800     
	-800     
	-800     
	-800     
	-800     
	-800     
	-800     
	-800     
	-800     
	-800     
	-800     
	-800     
	-800     
	-800     
	-800     
	-800     
	-800     
	-800     
	-800     
	-800     
	-800     
	-800     
	-800     
	-800     
	-800     
	-800     
	-800     
	-800     
	-800     
	-800     
	-800     
	-800     
	-800     
	-800     
	-800     
	-800     
	-800     
	-800     
	-800     
	-800     
	-800     
	-800     
	-800     
	-800     
	-800     
	-800     
	-800     
	-800     
	-800     
	-800     
	-800     
	-800     
	-800     
	-800     
	-800     
	-800     
	-800     
	-800     
	-800     
	-800     
	-800     
	-800     
	-800     
	-800     
	-800     
	-800     
	-800     
	-800     
	-800     
	-800     
	-800     
	-800     
	-800     
	-800     
	-800     
	-800     
	-800     
	-800     
	-800     
	-800     
	-800     
	-800     
	-800     
	-800     
	-800     
	-800     
	-800     
	-800     
	-800     
	-800     
	-800     
	-800     
	-800     
	-800     
	-800     
	-800     
	-800     
	-800     
	-800     
	-800     
	-800     
	-800     
	-800     
	-800     
	-800     
	-800     
	-800     
	-800     
	-800     
	-800     
	-800     
	-800     
	-800     
	-800     
	-800     
	-800     
	-800     
	-800     
	-800     
	-800     
	-800     
	-800     
	-800     
	-800     
	-800     
	-800     
	-800     
	-800     
	-800     
	-800     
	-800     
	-800     
	-800     
	-800     
	-800     
	-800     
	-800     
	-800     
	-800     
	-800     
	-800     
	-800     
	-800     
	-800     
	-800     
	-800     
	-800     
	-800     
	-800     
	-800     
	-800     
	-800     
	-800     
	-800     
	-800     
	-800     
	-800     
	-800     
	-800     
	-800     
	-800     
	-800     
	-800     
	-800     
	-800     
	-800     
	-800     
	-800     
	-800     
	-800     
	-800     
	-800     
	-800     
	-800     
	-800     
	-800     
	-800     
	-800     
	-800     
	-800     
	-800     
	-800     
	-800     
	-800     
	-800     
	-800     
	-800     
	-800     
	-800     
	-800     
	-800     
	-800     
	-800     
	-800     
	-800     
	-800     
	-800     
	-800     
	-800     
	-800     
	-800     
	-800     
	-800     
	-800     
	-800     
	-800     
	-800     
	-800     
	-800     
	-800     
	-800     
	-800     
	-800     
	-800     
	-800     
	-800     
	-800     
	-800     
	-800     
	-548.466 
	-612.24  
	-600.085 
	-567.173 
	-800     
	-800     
	-800     
	-800     
	-800     
	-800     
	-800     
	-800     
	-800     
	-800     
	-800     
	-800     
	-800     
	-800     
	-800     
	-800     
	-800     
	-800     
	-800     
	-800     
	-800     
	-800     
	-800     
	-800     
	-800     
	-800     
	-609.203 
	-554.174 
	-520.08  
	-511.221 
	-471.598 
	-546.467 
	-800     
	-800     
	-800     
	-655.807 
	-689.694 
	-800     
	-800     
	-800     
	-800     
	-800     
	-800     
	-530.023 
	-443.118 
	-514.749 
	-511.096 
	-455.472 
	-800     
	-800     
	-631.229 
	-800     
	-800     
	-800     
	-800     
	-619.136 
	-438.085 
	-450.455 
	-317.967 
	-186.974 
	-411.629 
	-599.615 
	-800     
	-800     
	-800     
	-800     
	-800     
	-800     
	-800     
	-800     
	-800     
	-800     
	-642.267 
	-800     
	-800     
	-800     
	-800     
	-800     
	-800     
	-800     
	-800     
	-646.666 
	-565.932 
	-512.571 
	-567.07  
	-598.758 
	-515.529 
	-420.164 
	-409.226 
	-425.455 
	-459.264 
	-545.669 
	-537.909 
	-435.306 
	-481.755 
	-655.804 
	-633.08  
	-521.322 
	-559.584 
	-654.679 
	-800     
	-800     
	-800     
	-578.955 
	-526.74  
	-466.916 
	-223.149 
	114.258  
	526.373  
	800      
	798.836  
	108.453  
	-800     
	-800     
	-664.094 
	-486.958 
	-326.206 
	-260.442 
	-236.536 
	-165.21  
	-201.412 
	-180.031 
	-231.181 
	-471.12  
	-571.186 
	-800     
	-800     
	-800     
	-800     
	-800     
	-650.868 
	-800     
	-595.615 
	-370.802 
	-197.683 
	-24.9141 
	64.9895  
	89.2336  
	106.212  
	18.8141  
	-118.006 
	-208.543 
	-231.395 
	-436.112 
	-800     
	-555.318 
	-447.902 
	-566.476 
	-578.628 
	-584.05  
	-474.604 
	-298.118 
	-392.633 
	-424.65  
	-234.306 
	-155.862 
	-166.959 
	-86.5441 
	114.382  
	143.972  
	81.8938  
	147.888  
	52.1914  
	-4.88449 
	250.987  
	384.494  
	129.151  
	-105.003 
	-45.9736 
	30.6278  
	36.18    
	53.7709  
	-52.7974 
	27.1096  
	249.676  
	24.5147  
	-231.125 
	-131.979 
	73.3984  
	173.19   
	166.205  
	117.622  
	-41.3857 
	-187.508 
	-230.034 
	-178.94  
	-160.09  
	-102.908 
	64.8769  
	38.0951  
	-51.7357 
	-111.494 
	-285.094 
	-434.367 
	-366.839 
	-177.458 
	-249.028 
	-372.587 
	-341.616 
	-412.559 
	-466.198 
	-507.979 
	-497.534 
	-254.344 
	-127.86  
	9.11683  
	267.816  
	251.798  
	235.64   
	198.243  
	77.9876  
	234.407  
	406.434  
	293.054  
	155.302  
	183.864  
	38.9275  
	-78.979  
	210.033  
	406.839  
	218.822  
	-108.553 
	-319.038 
	-310.973 
	-110.892 
	124.764  
	240.069  
	326.4    
	246.074  
	92.3128  
	127.506  
	187.438  
	491.851  
	800      
	788.251  
	562.953  
	482.206  
	513.494  
	395.058  
	158.355  
	209.985  
	315.69   
	243.385  
	159.241  
	102.231  
	62.7204  
	25.1375  
	-95.5968 
	-199.176 
	-204.045 
	-164.439 
	25.3647  
	208.055  
	163.515  
	97.0823  
	12.4331  
	-145.157 
	9.80514  
	152.206  
	-16.1109 
	170.95   
	471.15   
	417.407  
	292.469  
	302.333  
	389.107  
	209.1    
	25.7971  
	32.017   
	-28.5576 
	122.306  
	224.347  
	164.337  
	317.984  
	326.921  
	317.012  
	557.203  
	800      
	800      
	800      
	770.972  
	799.976  
	799.976  
	699.639  
	94.2999  
	32.1689  
	319.752  
	218.561  
	93.6566  
	163.434  
	83.4888  
	53.6719  
	23.5941  
	-39.9647 
	-81.2078 
	-159.228 
	-252.468 
	-256.406 
	-227.849 
	-182.199 
	49.2013  
	309.434  
	651.936  
	800      
	778.404  
	723.203  
	760.987  
	792.774  
	748.473  
	686.45   
	789.233  
	750.939  
	505.223  
	368.778  
	298.642  
	116.634  
	-99.3003 
	-197.824 
	-181.865 
	-131.106 
	-87.8817 
	-9.5915  
	123.529  
	188.103  
	236.018  
	310.868  
	449.531  
	800      
	799.976  
	799.976  
	799.976  
	800      
	799.976  
	799.976  
	748.889  
	799.976  
	800      
	171.906  
	94.7744  
	301.725  
	272.204  
	588.286  
	654.058  
	356.449  
	277.775  
	161.15   
	-24.4284 
	97.3046  
	269.981  
	248.349  
	226.441  
	304.407  
	352.957  
	322.339  
	530.251  
	800      
	800      
	796.708  
	587.444  
	364.695  
	426.253  
	600.383  
	662.741  
	575.489  
	566.233  
	603.752  
	502.977  
	574.958  
	661.56   
	442.013  
	332.03   
	377.576  
	390.036  
	544.989  
	762.603  
	800      
	800      
	762.781  
	610.436  
	618.749  
	608.558  
	473.431  
	413.634  
	434.416  
	397.864  
	356.43   
	339.977  
	198.576  
	126.882  
	154.936  
	146.766  
	157.295  
	232.171  
	314.249  
	228.068  
	139.66   
	370.306  
	763.182  
	799.976  
	799.976  
	746.134  
	800      
	800      
	800      
	799.976  
	799.976  
	661.001  
	460.724  
	338.729  
	508.365  
	504.675  
	345.67   
	334.505  
	439.756  
	567.054  
	566.131  
	569.211  
	570.089  
	610.113  
	800      
	799.976  
	799.976  
	799.976  
	799.976  
	799.976  
	799.976  
	799.976  
	799.976  
	699.527  
	507.08   
	419.243  
	508.48   
	536.352  
	575.879  
	428.472  
	331.344  
	480.846  
	306.934  
	176.156  
	477.395  
	693.161  
	539.752  
	232.651  
	126.258  
	239.584  
	378.893  
	513.159  
	778.664  
	799.976  
	799.976  
	799.976  
	799.976  
	745.073  
	714.985  
	554.413  
	426.266  
	443.243  
	438.871  
	336.724  
	250.33   
	207.783  
	110.73   
	124.766  
	253.584  
	352.841  
	435.056  
	523.532  
	678.526  
	799.976  
	799.976  
	799.976  
	799.976  
	799.976  
	799.976  
	799.976  
	799.976  
	799.976  
	799.976  
	622.538  
	411.357  
	369.459  
	332.493  
	436.674  
	368.361  
	396.082  
	552.292  
	526.885  
	494.354  
	470.348  
	501.414  
	558.031  
	519.905  
	570.317  
	730.93   
	799.976  
	799.976  
	799.976  
	799.976  
	799.976  
	799.976  
	799.976  
	775.091  
	799.976  
	729.287  
	758.523  
	799.976  
	753.483  
	659.401  
	799.976  
	799.976  
	667.305  
	664.852  
	679.404  
	691.953  
	633.354  
	584.183  
	654.328  
	512.651  
	468.269  
	601.318  
	515.498  
	547.503  
	657.012  
	640.456  
	619.906  
	566.248  
	520.472  
	530.174  
	529.468  
	444.101  
	367.798  
	438.863  
	489.794  
	423.649  
	376.044  
	368.774  
	469.887  
	732.473  
	799.976  
	799.976  
	799.976  
	799.976  
	799.976  
	799.976  
	799.976  
	799.976  
	665.066  
	799.976  
	799.976  
	646.958  
	709.326  
	584.327  
	189.797  
	181.586  
	246.611  
	238.244  
	315.358  
	316.862  
	397.804  
	512.497  
	649.56   
	799.976  
	799.976  
	799.976  
	799.976  
	799.976  
	799.976  
	799.976  
	799.976  
	799.976  
	701.532  
	725.015  
	614.621  
	645.756  
	548.755  
	454.815  
	602.67   
	631.072  
	601.174  
	445.889  
	373.998  
	603.91   
	678.799  
	574.296  
	509.163  
	337.783  
	388.392  
	577.763  
	570.113  
	799.976  
	799.976  
	638.26   
	799.976  
	799.976  
	799.976  
	799.976  
	799.976  
	681.888  
	675.359  
	799.976  
	799.976  
	799.976  
	799.976  
	799.976  
	712.697  
	799.976  
	799.976  
	799.976  
	799.976  
	799.976  
	799.976  
	592.032  
	498.889  
	799.976  
	799.976  
	682.32   
	677.741  
	647.804  
	640.949  
	598.227  
	542.073  
	492.709  
	491.341  
	575.1    
	519.551  
	430.179  
	547.542  
	674.466  
	799.976  
	799.976  
	799.976  
	799.976  
	799.976  
	799.976  
	799.976  
	799.976  
	799.976  
	799.976  
	471.237  
	414.249  
	458.713  
	665.539  
	799.976  
	496.425  
	309.922  
	424.293  
	463.372  
	372.911  
	533.115  
	634.577  
	667.724  
	799.976  
	799.976  
	799.976  
	799.976  
	799.976  
	799.976  
	799.976  
	799.976  
	799.976  
	799.976  
	799.976  
	799.976  
	799.976  
	608.366  
	337.283  
	416.089  
	577.261  
	434.169  
	410.862  
	442.064  
	409.205  
	461.484  
	395.929  
	444.331  
	673.867  
	799.976  
	799.976  
	799.976  
	799.976  
	799.976  
	799.976  
	799.976  
	799.976  
	799.976  
	799.976  
	799.976  
	665.06   
	548.12   
	799.976  
	799.976  
	799.976  
	799.976  
	637.504  
	595.252  
	453.613  
	482.418  
	799.976  
	799.976  
	799.976  
	799.976  
	799.976  
	799.976  
	799.976  
	799.976  
	799.976  
	799.976  
	799.976  
	799.976  
	799.976  
	799.976  
	799.976  
	799.976  
	799.976  
	799.976  
	799.976  
	799.976  
	799.976  
	799.976  
	799.976  
	640.758  
	440.275  
	572.986  
	617.249  
	647.428  
	799.976  
	582.888  
	640.621  
	799.976  
	389.917  
	338.229  
	423.863  
	400.795  
	338.916  
	291.348  
	371.387  
	390.615  
	345.999  
	428.959  
	402.418  
	298.363  
	437.391  
	619.06   
	799.976  
	799.976  
	799.976  
	799.976  
	799.976  
	799.976  
	799.976  
	799.976  
	799.976  
	799.976  
	799.976  
	799.976  
	544.794  
	601.549  
	799.976  
	799.976  
	799.976  
	799.976  
	799.976  
	599.098  
	799.976  
	799.976  
	799.976  
	799.976  
	799.976  
	799.976  
	799.976  
	799.976  
	799.976  
	799.976  
	799.976  
	799.976  
	522.454  
	799.976  
	799.976  
	799.976  
	799.976  
	799.976  
	799.976  
	631.717  
	799.976  
	799.976  
	799.976  
	799.976  
	799.976  
	799.976  
	799.976  
	587.305  
	528.952  
	588.591  
	799.976  
	799.976  
	799.976  
	799.976  
	799.976  
	799.976  
	799.976  
	799.976  
	799.976  
	799.976  
	799.976  
	799.976  
	799.976  
	799.976  
	799.976  
	799.976  
	799.976  
	364.792  
	375.056  
	799.976  
	799.976  
	799.976  
	799.976  
	591.478  
	634.706  
	799.976  
	799.976  
	610.948  
	799.976  
	799.976  
	636.431  
	607.474  
	799.976  
	799.976  
	799.976  
	799.976  
	799.976  
	799.976  
	799.976  
	799.976  
	799.976  
	799.976  
	799.976  
	799.976  
	799.976  
	799.976  
	799.976  
	799.976  
	799.976  
	799.976  
	799.976  
	799.976  
	799.976  
	563.279  
	451.141  
	520.658  
	799.976  
	799.976  
	799.976  
	799.976  
	799.976  
	799.976  
	799.976  
	595.24   
	543.141  
	614.583  
	585.546  
	799.976  
	799.976  
	799.976  
	799.976  
	799.976  
	799.976  
	799.976  
	606.296  
	799.976  
	799.976  
	530.395  
	325.73   
	473.34   
	799.976  
	799.976  
	799.976  
	610.184  
	469.908  
	574.733  
	585.967  
	608.302  
	799.976  
	799.976  
	604.936  
	610.845  
	799.976  
	799.976  
	799.976  
	799.976  
	799.976  
	799.976  
	559.57   
	799.976  
	799.976  
	799.976  
	799.976  
	799.976  
	799.976  
	799.976  
	799.976  
	799.976  
	799.976  
	799.976  
	799.976  
	799.976  
	799.976  
	799.976  
	799.976  
	799.976  
	799.976  
	799.976  
	799.976  
	799.976  
	799.976  
	799.976  
	799.976  
	512.099  
	799.976  
	799.976  
	799.976  
	799.976  
	799.976  
	799.976  
	799.976  
	799.976  
	602.478  
	346.139  
	422.513  
	458.011  
	396.267  
	412.74   
	375.083  
	438.646  
	799.976  
	799.976  
	799.976  
	799.976  
	799.976  
	799.976  
	799.976  
	799.976  
	799.976  
	465.211  
	502.774  
	400.287  
	280.089  
	570.888  
	799.976  
	799.976  
	799.976  
	485.053  
	422.722  
	799.976  
	597.224  
	378.432  
	539.651  
	527.024  
	490.639  
	498.739  
	326.988  
	361.909  
	477.865  
	572.772  
	799.976  
	799.976  
	799.976  
	799.976  
	799.976  
	799.976  
	799.976  
	799.976  
	799.976  
	799.976  
	799.976  
	799.976  
	573.132  
	584.052  
	585.195  
	799.976  
	799.976  
	799.976  
	799.976  
	799.976  
	799.976  
	799.976  
	799.976  
	799.976  
	799.976  
	585.751  
	799.976  
	799.976  
	799.976  
	799.976  
	449.057  
	478.211  
	799.976  
	799.976  
	799.976  
	410.551  
	197.063  
	238.254  
	555.962  
	799.976  
	799.976  
	799.976  
	799.976  
	799.976  
	799.976  
	799.976  
	799.976  
	546.792  
	273.484  
	396.972  
	799.976  
	799.976  
	799.976  
	799.976  
	799.976  
	554.815  
	534.061  
	518.712  
	799.976  
	799.976  
	799.976  
	799.976  
	566.517  
	404.931  
	799.976  
	799.976  
	799.976  
	799.976  
	487.341  
	331.101  
	318.891  
	799.976  
	799.976  
	799.976  
	799.976  
	799.976  
	799.976  
	799.976  
	515.808  
	534.666  
	799.976  
	799.976  
	530.341  
	459.778  
	410.885  
	799.976  
	799.976  
	799.976  
	799.976  
	799.976  
	526.968  
	799.976  
	799.976  
	799.976  
	799.976  
	799.976  
	799.976  
	799.976  
	799.976  
	799.976  
	799.976  
	799.976  
	799.976  
	799.976  
	799.976  
	799.976  
	799.976  
	799.976  
	799.976  
	799.976  
	546.634  
	391.623  
	799.976  
	799.976  
	799.976  
	799.976  
	799.976  
	448.911  
	499.969  
	799.976  
	799.976  
	799.976  
	799.976  
	799.976  
	799.976  
	799.976  
	799.976  
	799.976  
	799.976  
	799.976  
	799.976  
	799.976  
	799.976  
	799.976  
	480.075  
	395.46   
	484.815  
	435.314  
	243.244  
	-92.2992 
	-9.00053 
	355.346  
	799.976  
	799.976  
	262.722  
	111.538  
	379.435  
	799.976  
	799.976  
	799.976  
	799.976  
	799.976  
	799.976  
	557.652  
	799.976  
	799.976  
	799.976  
	799.976  
	799.976  
	799.976  
	799.976  
	799.976  
	799.976  
	491.452  
	426.5    
	415.842  
	244.516  
	277.495  
	526.59   
	433.472  
	205.306  
	102.257  
	194.311  
	370.683  
	489.256  
	799.976  
	510.701  
	437.467  
	799.976  
	799.976  
	799.976  
	799.976  
	799.976  
	799.976  
	799.976  
	799.976  
	799.976  
	799.976  
	799.976  
	799.976  
	799.976  
	799.976  
	799.976  
	799.976  
	799.976  
	799.976  
	799.976  
	799.976  
	799.976  
	799.976  
	799.976  
	799.976  
	799.976  
	799.976  
	799.976  
	799.976  
	799.976  
	799.976  
	540.719  
	799.976  
	799.976  
	456.77   
	509.716  
	497.267  
	356.081  
	436.022  
	799.976  
	542.692  
	320.271  
	302.594  
	345.049  
	395.62   
	387.655  
	198.845  
	394.013  
	799.976  
	400.002  
	413.712  
	503.228  
	799.976  
	799.976  
	799.976  
	799.976  
	799.976  
	799.976  
	799.976  
	422.325  
	510.874  
	799.976  
	469.153  
	355.631  
	434.061  
	799.976  
	799.976  
	799.976  
	799.976  
	394.388  
	320.813  
	229.864  
	276.31   
	398.94   
	257.329  
	229.843  
	348.121  
	444.2    
	799.976  
	799.976  
	799.976  
	799.976  
	799.976  
	799.976  
	799.976  
	799.976  
	799.976  
	799.976  
	799.976  
	799.976  
	799.976  
	799.976  
	799.976  
	468.9    
	194.715  
	220.47   
	233.616  
	119.27   
	206.56   
	799.976  
	799.976  
	799.976  
	799.976  
	799.976  
	510.327  
	799.976  
	421.167  
	221.854  
	307.854  
	299.224  
	102.093  
	159.488  
	499.198  
	799.976  
	454.329  
	211.708  
	244.164  
	370.952  
	265.079  
	123.257  
	204.003  
	403.674  
	470.476  
	405.075  
	377.725  
	399.282  
	446.117  
	799.976  
	799.976  
	799.976  
	799.976  
	799.976  
	306.588  
	474.87   
	799.976  
	799.976  
	799.976  
	799.976  
	407.607  
	386.35   
	369.499  
	301.898  
	132.713  
	204.246  
	397.648  
	402.313  
	407.628  
	453.252  
	799.976  
	799.976  
	799.976  
	799.976  
	799.976  
	799.976  
	354.297  
	465.169  
	799.976  
	438.047  
	449.344  
	799.976  
	799.976  
	799.976  
	799.976  
	453.985  
	434.275  
	355.844  
	355.027  
	330.137  
	105.313  
	101.236  
	160.145  
	111.305  
	177.853  
	392.159  
	799.976  
	799.976  
	799.976  
	799.976  
	799.976  
	799.976  
	799.976  
	111.947  
	38.2216  
	130.079  
	380.135  
	416.615  
	280.337  
	270.955  
	340.569  
	799.976  
	799.976  
	799.976  
	799.976  
	799.976  
	799.976  
	799.976  
	799.976  
	799.976  
	799.976  
	799.976  
	799.976  
	799.976  
	799.976  
	799.976  
	799.976  
	799.976  
	799.976  
	799.976  
	799.976  
	799.976  
	799.976  
	439.101  
	4.7464   
	33.8116  
	310.562  
	270.219  
	119.485  
	6.62215  
	-59.295  
	-76.452  
	-58.6488 
	94.0765  
	329.224  
	365.58   
	291.035  
	407.539  
	799.976  
	799.976  
	799.976  
	799.976  
	799.976  
	799.976  
	799.976  
	799.976  
	799.976  
	799.976  
	799.976  
	799.976  
	799.976  
	799.976  
	799.976  
	467.505  
	390.084  
	264.369  
	301.994  
	431.259  
	188.243  
	229.621  
	316.288  
	20.2922  
	96.5004  
	223.859  
	225.486  
	374.432  
	799.976  
	799.976  
	799.976  
	799.976  
	799.976  
	799.976  
	799.976  
	799.976  
	799.976  
	799.976  
	799.976  
	799.976  
	799.976  
	359.409  
	38.7449  
	139.407  
	165.755  
	418.817  
	799.976  
	223.313  
	30.2763  
	-141.421 
	-304.647 
	-173.313 
	-53.6161 
	-48.149  
	153.192  
	183.466  
	70.8477  
	46.0304  
	51.1634  
	320.71   
	799.976  
	799.976  
	799.976  
	799.976  
	799.976  
	799.976  
	799.976  
	799.976  
	799.976  
	799.976  
	313.788  
	234.828  
	385.757  
	799.976  
	799.976  
	419.201  
	413.777  
	339.019  
	311.793  
	308.767  
	129.398  
	77.738   
	141.447  
	143.961  
	255.84   
	241.601  
	81.3355  
	146.233  
	276.864  
	395.395  
	799.976  
	799.976  
	799.976  
	799.976  
	799.976  
	799.976  
	799.976  
	799.976  
	799.976  
	799.976  
	142.495  
	90.8589  
	282.523  
	115.132  
	266.432  
	454.082  
	799.976  
	799.976  
	799.976  
	799.976  
	799.976  
	369.37   
	42.7359  
	20.6058  
	252.77   
	799.976  
	799.976  
	344.028  
	799.976  
	799.976  
	423.138  
	799.976  
	799.976  
	799.976  
	799.976  
	799.976  
	799.976  
	231.139  
	4.1595   
	87.13    
	285.094  
	393.243  
	260.864  
	168.393  
	267.689  
	254.721  
	799.976  
	799.976  
	126.675  
	241.416  
	799.976  
	799.976  
	799.976  
	426.211  
	322.965  
	334.918  
	799.976  
	799.976  
	799.976  
	799.976  
	799.976  
	307.31   
	269.046  
	326.688  
	232.215  
	216.167  
	431.62   
	799.976  
	799.976  
	799.976  
	799.976  
	799.976  
	153.749  
	210.339  
	391.217  
	223.449  
	255.493  
	424.846  
	408.557  
	799.976  
	799.976  
	799.976  
	799.976  
	799.976  
	799.976  
	799.976  
	799.976  
	799.976  
	799.976  
	799.976  
	154.559  
	-79.8622 
	128.417  
	132.834  
	246.977  
	799.976  
	799.976  
	799.976  
	799.976  
	799.976  
	269.074  
	-74.3718 
	-205.09  
	-467.761 
	-616.518 
	-419.349 
	-24.1311 
	350.902  
	437.463  
	799.976  
	799.976  
	799.976  
	799.976  
	799.976  
	799.976  
	799.976  
	799.976  
	799.976  
	799.976  
	799.976  
	799.976  
	347.294  
	119.022  
	179.678  
	293.319  
	133.078  
	-140.792 
	-36.1573 
	117.184  
	289.579  
	799.976  
	399.89   
	198.374  
	60.3612  
	-17.3893 
	85.5005  
	90.0225  
	93.7553  
	224.315  
	406.044  
	799.976  
	799.976  
	799.976  
	799.976  
	799.976  
	799.976  
	799.976  
	799.976  
	799.976  
	252.03   
	198.773  
	191.642  
	197.963  
	131.954  
	50.044   
	80.097   
	349.272  
	799.976  
	799.976  
	799.976  
	799.976  
	799.976  
	411.323  
	107.269  
	126.58   
	417.376  
	799.976  
	799.976  
	799.976  
	799.976  
	799.976  
	799.976  
	258.535  
	284.609  
	256.56   
	41.1421  
	29.5032  
	3.25162  
	-83.0257 
	-10.3302 
	39.4958  
	107.741  
	298.739  
	343.446  
	386.897  
	799.976  
	799.976  
	799.976  
	799.976  
	799.976  
	799.976  
	3.91156  
	103.542  
	420.942  
	245.997  
	180.482  
	260.267  
	387.658  
	799.976  
	799.976  
	799.976  
	799.976  
	799.976  
	799.976  
	417.636  
	250.989  
	264.932  
	312.897  
	375.456  
	799.976  
	799.976  
	799.976  
	283.574  
	162.45   
	302.539  
	799.976  
	799.976  
	799.976  
	799.976  
	799.976  
	258.309  
	143.989  
	69.9833  
	167.757  
	285.079  
	95.3646  
	-62.1131 
	68.0083  
	240.715  
	305.995  
	235.148  
	285.292  
	799.976  
	799.976  
	799.976  
	799.976  
	799.976  
	387.806  
	266.852  
	-38.4664 
	-9.27097 
	283.854  
	187.511  
	213.5    
	799.976  
	799.976  
	799.976  
	799.976  
	799.976  
	799.976  
	383.591  
	351.867  
	267.688  
	799.976  
	799.976  
	799.976  
	799.976  
	799.976  
	799.976  
	799.976  
	258.866  
	250.524  
	329.616  
	243.821  
	391.074  
	799.976  
	112.644  
	-55.3296 
	-66.9087 
	-107.711 
	-95.0195 
	9.65089  
	35.1457  
	-112.096 
	-161.643 
	-98.2626 
	39.5613  
	166.954  
	198.031  
	269.514  
	257.2    
	271.35   
	352.476  
	330.64   
	799.976  
	799.976  
	799.976  
	799.976  
	799.976  
	799.976  
	799.976  
	327.943  
	215.199  
	391.483  
	299.839  
	115.951  
	252.664  
	799.976  
	151.33   
	-58.5227 
	84.324   
	178.558  
	184.71   
	237.632  
	245.794  
	11.3716  
	-66.3597 
	217.141  
	378.859  
	799.976  
	799.976  
	799.976  
	799.976  
	799.976  
	799.976  
	799.976  
	799.976  
	799.976  
	280.044  
	306.517  
	799.976  
	236.985  
	-164.987 
	-146.87  
	239.468  
	799.976  
	799.976  
	799.976  
	362.362  
	318.702  
	321.638  
	262.298  
	36.6256  
	-10.4937 
	243.461  
	352.25   
	102.114  
	248.073  
	799.976  
	799.976  
	799.976  
	291.582  
	301.521  
	799.976  
	124.727  
	-213.47  
	-169.335 
	-21.0594 
	-228.783 
	-388.918 
	-150.128 
	-263.044 
	-570.241 
	-435.894 
	72.6766  
	799.976  
	799.976  
	799.976  
	254.009  
	48.5234  
	142.337  
	174.265  
	34.0298  
	-63.4522 
	-141.335 
	-94.8477 
	-21.6665 
	-212.315 
	-301.454 
	-167.638 
	-48.0495 
	-82.4479 
	-156.539 
	-71.9971 
	-121.107 
	-173.588 
	-48.988  
	8.03302  
	-24.8125 
	41.2121  
	245.824  
	245.922  
	799.976  
	799.976  
	241.726  
	101.217  
	3.87694  
	-11.3748 
	147.798  
	93.152   
	117.855  
	292.078  
	799.976  
	799.976  
	799.976  
	258.209  
	-206     
	-572.868 
	-800     
	-800     
	-800     
	-400.019 
	0.479562 
	799.976  
	799.976  
	799.976  
	799.976  
	-62.3283 
	-281.584 
	-43.0941 
	-390.756 
	-750.08  
	-731.788 
	-459.277 
	69.8497  
	28.0337  
	78.2996  
	799.976  
	335.404  
	52.4214  
	-77.267  
	-208.028 
	-400.521 
	-469.182 
	-133.872 
	295.102  
	91.0019  
	-206.789 
	-207.741 
	-261.985 
	-114.023 
	44.8799  
	102.895  
	129.58   
	19.3563  
	205.57   
	799.976  
	6.12702  
	-364.58  
	-383.308 
	-554.006 
	-372.638 
	186.936  
	799.976  
	799.976  
	799.976  
	799.976  
	799.976  
	799.976  
	799.976  
	799.976  
	136.436  
	-376.302 
	-542.939 
	-606.942 
	-620.36  
	-475.332 
	-368.994 
	-175.487 
	-67.0548 
	-72.0018 
	-61.1828 
	-215.609 
	-376.428 
	-383.401 
	-239.088 
	-266.956 
	-399.945 
	-96.7663 
	181.938  
	236.548  
	392.546  
	414.441  
	238.264  
	47.8083  
	143.624  
	399.996  
	264.701  
	98.806   
	114.059  
	14.2556  
	25.5706  
	-62.1146 
	-122.683 
	133.387  
	264.969  
	269.957  
	100.662  
	-370.275 
	-605.268 
	-184.357 
	799.976  
	799.976  
	-100.714 
	-307.872 
	-209.191 
	162.02   
	255.596  
	234.333  
	308.431  
	-175.069 
	-505.384 
	-649.217 
	-800     
	-566.029 
	-550.376 
	-744.491 
	-579.912 
	-458.132 
	-255.432 
	96.7438  
	310.764  
	352.765  
	378.027  
	207.187  
	32.7177  
	293.714  
	340.747  
	-3.93129 
	1.53971  
	205.202  
	313.258  
	128.198  
	-102.783 
	83.0022  
	105.359  
	64.9392  
	-19.4055 
	-257.791 
	-233.378 
	-382.016 
	-619.084 
	-487.669 
	-285.036 
	-164.104 
	4.94215  
	31.0313  
	-140.155 
	-142.11  
	-31.6924 
	192.765  
	799.976  
	799.976  
	236.745  
	123.295  
	-109.897 
	-114.056 
	-61.8877 
	-258.631 
	-248.656 
	-258.163 
	-204.235 
	78.9883  
	149.33   
	79.6555  
	415.175  
	799.976  
	-92.4781 
	-465.999 
	-465.121 
	-498.83  
	-62.9977 
	799.976  
	799.976  
	799.976  
	799.976  
	799.976  
	-289.252 
	-732.917 
	-800     
	-800     
	-800     
	-616.416 
	-624.693 
	-675.542 
	-465.969 
	-653.877 
	-800     
	-364.134 
	-357.887 
	-798.154 
	-800     
	-800     
	-593.53  
	-233.887 
	-146.224 
	-193.584 
	-358.566 
	-551.897 
	-673.885 
	-502.145 
	-67.3308 
	194.439  
	132.095  
	-51.1603 
	-333.146 
	-688.067 
	-800     
	-773.025 
	-800     
	-800     
	-800     
	-800     
	-800     
	-588.394 
	-477.623 
	-729.56  
	-493.592 
	-321.46  
	-581.253 
	-800     
	-800     
	-800     
	-195.202 
	-50.5371 
	-464.09  
	-713.15  
	-800     
	-800     
	-800     
	-800     
	-800     
	-800     
	-800     
	-800     
	-800     
	-800     
	-800     
	-800     
	-800     
	-800     
	-800     
	-800     
	-800     
	-704.88  
	-650.257 
	-765.499 
	-800     
	-800     
	-647.764 
	-800     
	-800     
	-800     
	-800     
	-800     
	-800     
	-800     
	-800     
	-800     
	-800     
	-800     
	-800     
	-800     
	-800     
	-800     
	-800     
	-800     
	-800     
	-800     
	-800     
	-800     
	-800     
	-800     
	-800     
	-800     
	-800     
	-800     
	-800     
	-800     
	-800     
	-800     
	-800     
	-800     
	-800     
	-800     
	-800     
	-800     
	-800     
	-800     
	-800     
	-800     
	-800     
	-800     
	-800     
	-800     
	-800     
	-800     
	-800     
	-800     
	-800     
	-800     
	-800     
	-800     
	-800     
	-800     
	-800     
	-800     
	-800     
	-800     
	-800     
	-800     
	-800     
	-800     
	-800     
	-800     
	-800     
	-800     
	-800     
	-800     
	-800     
	-800     
	-800     
	-800     
	-800     
	-800     
	-800     
	-800     
	-800     
	-800     
	-800     
	-800     
	-800     
	-800     
	-800     
	-800     
	-800     
	-800     
	-800     
	-800     
	-800     
	-800     
	-800     
	-800     
	-800     
	-800     
	-800     
	-800     
	-800     
	-800     
	-800     
	-800     
	-800     
	-800     
	-800     
	-800     
	-800     
	-800     
	-800     
	-800     
	-800     
	-800     
	-800     
	-800     
	-800     
	-800     
	-800     
	-800     
	-800     
	-800     
	-800     
	-800     
	-800     
	-800     
	-800     
	-800     
	-800     
	-800     
	-800     
	-800     
	-800     
	-800     
	-800     
	-800     
	-800     
	-800     
	-800     
	-800     
	-800     
	-800     
	-800     
	-800     
	-800     
	-800     
	-800     
	-800     
	-800     
	-800     
	-800     
	-800     
	-800     
	-800     
	-800     
	-800     
	-800     
	-800     
	-800     
	-800     
	-800     
	-800     
	-800     
	-800     
	-800     
	-800     
	-800     
	-800     
	-800     
	-800     
	-800     
	-800     
	-800     
	-800     
	-800     
	-800     
	-800     
	-800     
	-800     
	-800     
	-800     
	-800     
	-800     
	-800     
	-800     
	-800     
	-800     
	-800     
	-800     
	-800     
	-800     
	-800     
	-800     
	-800     
	-800     
	-800     
	-800     
	-800     
	-800     
	-800     
	-800     
	-800     
	-800     
	-800     
	-800     
	-800     
	-800     
	-800     
	-800     
	-800     
	-800     
	-800     
	-800     
	-800     
	-800     
	-800     
	-800     
	-800     
	-800     
	-800     
	-800     
	-800     
	-800     
	-800     
	-800     
	-800     
	-800     
	-800     
	-800     
	-800     
	-800     
	-800     
	-800     
	-800     
	-800     
	-800     
	-800     
	-800     
	-800     
	-800     
	-800     
	-800     
	-800     
	-800     
	-800     
	-800     
	-800     
	-800     
	-800     
	-800     
	-800     
	-800     
	-800     
	-800     
	-800     
	-800     
	-800     
	-800     
	-800     
	-800     
	-800     
	-800     
	-800     
	-800     
	-800     
	-800     
	-800     
	-800     
	-800     
	-800     
	-800     
	-800     
	-800     
	-800     
	-800     
	-800     
	-800     
	-800     
	-800     
	-800     
	-800     
	-800     
	-800     
	-800     
	-800     
	-800     
	-800     
	-800     
	-800     
	-800     
	-800     
	-800     
	-800     
	-800     
	-800     
	-800     
	-800     
	-800     
	-800     
	-800     
	-800     
	-800     
	-800     
	-800     
	-800     
	-800     
	-800     
	-800     
	-800     
	-800     
	-800     
	-800     
	-800     
	-800     
	-800     
	-800     
	-800     
	-800     
	-800     
	-800     
	-800     
	-800     
	-800     
	-800     
	-800     
	-800     
	-800     
	-800     
	-800     
	-800     
	-800     
	-800     
	-800     
	-800     
	-800     
	-800     
	-800     
	-800     
	-800     
	-800     
	-800     
	-800     
	-800     
	-800     
	-800     
	-800     
	-800     
	-800     
	-800     
	-800     
	-800     
	-800     
	-800     
	-800     
	-800     
	-800     
	-800     
	-800     
	-800     
	-800     
	-800     
	-800     
	-800     
	-800     
	-800     
	-800     
	-800     
	-800     
	-800     
	-800     
	-800     
	-800     
	-800     
	-800     
	-800     
	-800     
	-800     
	-800     
	-800     
	-800     
	-800     
	-800     
	-800     
	-800     
	-800     
	-800     
	-800     
	-800     
	-800     
	-800     
	-800     
	-800     
	-800     
	-800     
	-800     
	-800     
	-800     
	-800     
	-800     
	-800     
	-800     
	-800     
	-800     
	-800     
	-800     
	-800     
	-800     
	-800     
	-800     
	-800     
	-800     
	-800     
	-800     
	-800     
	-800     
	-800     
	-800     
	-800     
	-800     
	-800     
	-800     
	-800     
	-800     
	-800     
	-800     
	-800     
	-800     
	-800     
	-800     
	-800     
	-800     
	-800     
	-800     
	-800     
	-800     
	-800     
	-800     
	-800     
	-800     
	-800     
	-800     
	-800     
	-800     
	-800     
	-800     
	-800     
	-800     
	-800     
	-800     
	-800     
	-800     
	-800     
	-800     
	-800     
	-800     
	-800     
	-800     
	-800     
	-800     
	-800     
	-800     
	-800     
	-800     
	-800     
	-800     
	-800     
	-800     
	-800     
	-800     
	-800     
	-800     
	-800     
	-800     
	-800     
	-800     
	-800     
	-800     
	-800     
	-800     
	-800     
	-800     
	-800     
	-800     
	-800     
	-800     
	-800     
	-800     
	-800     
	-800     
	-800     
	-800     
	-800     
	-800     
	-800     
	-800     
	-800     
	-800     
	-800     
	-800     
	-800     
	-800     
	-800     
	-800     
	-800     
	-800     
	-800     
	-800     
	-800     
	-800     
	-800     
	-800     
	-800     
	-800     
	-800     
	-800     
	-800     
	-800     
	-800     
	-800     
	-800     
	-800     
	-800     
	-800     
	-800     
	-800     
	-800     
	-800     
	-800     
	-800     
	-800     
	-800     
	-800     
	-800     
	-800     
	-800     
	-800     
	-800     
	-800     
	-800     
	-800     
	-800     
	-800     
	-800     
	-800     
	-800     
	-800     
	-800     
	-800     
	-800     
	-800     
	-800     
	-800     
	-800     
	-800     
	-800     
	-800     
	-800     
	-800     
	-800     
	-800     
	-800     
	-800     
	-800     
	-800     
	-800     
	-800     
	-800     
	-800     
	-800     
	-800     
	-800     
	-800     
	-800     
	-800     
	-800     
	-800     
	-800     
	-800     
	-800     
	-800     
	-800     
	-800     
	-800     
	-800     
	-800     
	-800     
	-800     
	-800     
	-800     
	-800     
	-800     
	-800     
	-800     
	-800     
	-800     
	-800     
	-800     
	-800     
	-800     
	-800     
	-800     
	-800     
	-800     
	-800     
	-800     
	-800     
	-800     
	-800     
	-800     
	-800     
	-800     
	-800     
	-800     
	-800     
	-800     
	-800     
	-800     
	-800     
	-800     
	-800     
	-800     
	-800     
	-800     
	-800     
	-800     
	-800     
	-800     
	-800     
	-800     
	-800     
	-800     
	-800     
	-800     
	-800     
	-800     
	-800     
	-800     
	-800     
	-800     
	-800     
	-800     
	-800     
	-800     
	-800     
	-800     
	-800     
	-800     
	-800     
	-800     
	-800     
	-800     
	-800     
	-800     
	-800     
	-800     
	-800     
	-800     
	-800     
	-800     
	-800     
	-800     
	-800     
	-800     
	-800     
	-800     
	-800     
	-800     
	-800     
	-800     
	-800     
	-800     
	-800     
	-800     
	-800     
	-800     
	-800     
	-800     
	-800     
	-800     
	-800     
	-800     
	-800     
	-800     
	-800     
	-800     
	-800     
	-800     
	-800     
	-800     
	-800     
	-800     
	-800     
	-800     
	-800     
	-800     
	-800     
	-800     
	-800     
	-800     
	-800     
	-800     
	-800     
	-800     
	-800     
	-800     
	-800     
	-800     
	-800     
	-800     
	-800     
	-800     
	-800     
	-800     
	-800     
	-800     
	-800     
	-800     
	-800     
	-800     
	-800     
	-800     
	-800     
	-800     
	-800     
	-800     
	-800     
	-800     
	-800     
	-800     
	-800     
	-800     
	-800     
	-800     
	-800     
	-800     
	-800     
	-800     
	-800     
	-800     
	-800     
	-800     
	-800     
	-800     
	-800     
	-800     
	-800     
	-800     
	-800     
	-800     
	-800     
	-800     
	-800     
	-800     
	-800     
	-800     
	-800     
	-800     
	-800     
	-800     
	-800     
	-800     
	-800     
	-800     
	-800     
	-800     
	-800     
	-800     
	-800     
	-800     
	-800     
	-800     
	-800     
	-800     
	-800     
	-800     
	-800     
	-800     
	-800     
	-800     
	-800     
	-800     
	-800     
	-800     
	-800     
	-800     
	-800     
	-800     
	-800     
	-800     
	-800     
	-800     
	-800     
	-800     
	-800     
	-800     
	-800     
	-800     
	-800     
	-800     
	-800     
	-800     
	-800     
	-800     
	-800     
	-800     
	-800     
	-800     
	-800     
	-800     
	-800     
	-800     
	-800     
	-800     
	-800     
	-800     
	-800     
	-800     
	-800     
	-800     
	-800     
	-800     
	-800     
	-800     
	-800     
	-800     
	-800     
	-800     
	-800     
	-800     
	-800     
	-800     
	-800     
	-800     
	-800     
	-800     
	-800     
	-800     
	-800     
	-800     
	-800     
	-800     
	-800     
	-800     
	-800     
	-800     
	-800     
	-800     
	-800     
	-800     
	-800     
	-800     
	-800     
	-800     
	-800     
	-773.815 
	-800     
	-800     
	-800     
	-800     
	-800     
	-800     
	-800     
	-800     
	-800     
	-800     
	-800     
	-800     
	-800     
	-800     
	-800     
	-800     
	-800     
	-800     
	-800     
	-800     
	-800     
	-800     
	-800     
	-800     
	-800     
	-800     
	-800     
	-800     
	-800     
	-800     
	-800     
	-800     
	-800     
	-800     
	-800     
	-800     
	-800     
	-800     
	-800     
	-800     
	-800     
	-800     
	-800     
	-800     
	-800     
	-800     
	-800     
	-800     
	-800     
	-800     
	-800     
	-800     
	-800     
	-800     
	-800     
	-800     
	-800     
	-800     
	-777.522 
	-800     
	-800     
	-622.36  
	-419.668 
	-334.972 
	-402.221 
	-498.734 
	-608.651 
	-602.821 
	-501.096 
	-561.861 
	-612.974 
	-695.7   
	-800     
	-800     
	-800     
	-800     
	-800     
	-800     
	-800     
	-660.399 
	-629.836 
	-574.061 
	-722.35  
	-800     
	-800     
	-800     
	-800     
	-692.454 
	-605.268 
	-428.658 
	-486.412 
	-800     
	-800     
	-767.965 
	-717.979 
	-800     
	-800     
	-800     
	-800     
	-765.23  
	-800     
	-800     
	-800     
	-800     
	-800     
	-761.728 
	-800     
	-800     
	-800     
	-735.096 
	-656.61  
	-631.469 
	-555.301 
	-470.568 
	-453.217 
	-424.386 
	-424.928 
	-567.376 
	-778.777 
	-800     
	-800     
	-800     
	-737.728 
	-720.191 
	-800     
	-742.729 
	-703.279 
	-800     
	-676.153 
	-472.871 
	-462.785 
	-431.765 
	-486.977 
	-536.378 
	-288.896 
	-38.5622 
	-75.7834 
	-189.157 
	-44.8684 
	92.9525  
	37.1413  
	33.4126  
	105.645  
	112.47   
	-119.457 
	-390.533 
	-464.068 
	-293.822 
	-39.2107 
	8.18188  
	29.8501  
	-18.8663 
	-172.885 
	-252.391 
	-557.193 
	-800     
	-800     
	-800     
	-800     
	-800     
	-800     
	-800     
	-800     
	-790.036 
	-636.054 
	-588.146 
	-609.063 
	-612.646 
	-373.508 
	-151.553 
	-258.198 
	-293.834 
	-127.299 
	-123.108 
	-150.779 
	-137.982 
	-218.579 
	-173.75  
	-191.984 
	-367.287 
	-340.838 
	-238.436 
	-229.449 
	-337.606 
	-585.709 
	-728.561 
	-680.87  
	-674.049 
	-722.634 
	-617.756 
	-472.807 
	-404.303 
	-291.074 
	-223.694 
	-177.051 
	-190.913 
	-252.555 
	-161.564 
	-157.259 
	-119.62  
	160.346  
	162.434  
	-39.6348 
	14.7344  
	-152.372 
	-496.413 
	-356.546 
	-202.528 
	-211.805 
	-67.6202 
	-102.372 
	-110.228 
	36.1798  
	24.5746  
	18.1866  
	7.5422   
	-163.868 
	-247.83  
	-90.1871 
	30.9626  
	-41.5128 
	-127.95  
	17.4671  
	156.975  
	44.4319  
	-16.6295 
	-44.3552 
	-230.79  
	-434.825 
	-529.545 
	-501.156 
	-458.064 
	-540.154 
	-569.308 
	-396.692 
	-263.989 
	-257.784 
	-237.883 
	-42.6229 
	154.488  
	142.611  
	280.201  
	503.314  
	582.222  
	623.174  
	526.948  
	278.898  
	105.391  
	-70.9114 
	-517.622 
	-739.897 
	-486.055 
	-447.162 
	-595.105 
	-305.388 
	-44.6088 
	-244.873 
	-491.224 
	-585.155 
	-434.511 
	-280.321 
	-252.913 
	-200.923 
	-101.467 
	17.8497  
	79.0132  
	209.43   
	274.476  
	275.544  
	392.199  
	368.776  
	270.736  
	316.008  
	310.193  
	146.164  
	-64.0944 
	-76.8765 
	29.9549  
	-29.6889 
	-83.1469 
	-64.9408 
	-92.2096 
	-178.404 
	-268.388 
	-306.567 
	-256.792 
	-69.3505 
	36.735   
	52.5931  
	53.1525  
	3.58727  
	132.829  
	310.267  
	390.222  
	431.39   
	304.865  
	207.8    
	116.112  
	-123.846 
	-185.835 
	-102.847 
	-129.459 
	-233.463 
	-256.438 
	-156.293 
	25.1542  
	131.842  
	84.4944  
	202.388  
	299.132  
	238.249  
	399.098  
	608.621  
	659.524  
	536.74   
	355.21   
	395.469  
	405.187  
	230.881  
	141.028  
	220.448  
	451.894  
	510.8    
	157.874  
	-248.754 
	-321.824 
	-195.53  
	-120.452 
	-107.005 
	-137.024 
	-0.224327
	222.686  
	310.123  
	377.955  
	420.805  
	352.375  
	278.684  
	373.845  
	342.505  
	156.488  
	204.365  
	238.81   
	229.287  
	303.32   
	196.55   
	179.594  
	365.676  
	263.666  
	80.5534  
	108.573  
	16.1216  
	-140.377 
	-90.2575 
	49.4051  
	108.021  
	164.38   
	275.196  
	340.85   
	340.696  
	367.615  
	467.706  
	504.045  
	430.971  
	434.183  
	539.832  
	555.083  
	481.107  
	433.248  
	345.794  
	222.553  
	145.448  
	119.344  
	46.5065  
	-43.5597 
	-64.6247 
	-139.944 
	-54.8729 
	147.701  
	212.863  
	251.512  
	210.256  
	238.666  
	269.022  
	261.344  
	434.272  
	631.557  
	799.976  
	517.485  
	472.118  
	483.521  
	399.192  
	563.396  
	585.457  
	303.564  
	199.769  
	377.593  
	668.354  
	799.976  
	799.976  
	313.205  
	213.733  
	340.481  
	220.42   
	112.148  
	436.142  
	799.976  
	799.976  
	799.976  
	575.886  
	364.598  
	464.963  
	413.499  
	352.157  
	340.688  
	274.361  
	289.161  
	339.471  
	320.855  
	328.69   
	376.657  
	366.63   
	286.131  
	255.03   
	308.112  
	323.824  
	301.189  
