Date: 09.03.26
Time: 16:47:26
Client: 
Session: 
Device: Neurobit Optima+ 4 USB
Signals: 1
Channel	A
Min	-800
Max	800
Unit	uV
SR	1000
Label	EMG
Sensor	AgAgCl
	-170.776 
	62.5874  
	218.962  
	561.146  
	574.626  
	340.218  
	358.041  
	453.32   
	396.903  
	438.473  
	496.307  
	186.313  
	-149.879 
	-64.2523 
	70.9709  
	108.351  
	466.67   
	588.039  
	263.115  
	311.572  
	371.523  
	146.376  
	55.8289  
	-127.356 
	-192.118 
	45.9109  
	61.2395  
	6.34172  
	-33.3545 
	78.5902  
	354.768  
	243.023  
	232.052  
	446.549  
	293.385  
	86.4102  
	39.0507  
	37.8307  
	124.64   
	90.0872  
	113.064  
	307.614  
	360.402  
	289.452  
	95.168   
	-22.1616 
	44.1019  
	60.2144  
	109.346  
	139.458  
	89.9744  
	95.9269  
	-38.234  
	-91.5295 
	135.724  
	259.618  
	161.516  
	-81.1867 
	-74.5457 
	150.09   
	264.421  
	327.412  
	127.301  
	-72.3118 
	-55.5896 
	-61.9484 
	-2.09796 
	88.2748  
	192.697  
	302.826  
	439.43   
	597.607  
	608.993  
	526.428  
	420.432  
	418.737  
	515.561  
	503.515  
	434.442  
	480.259  
	566.064  
	493.043  
	599.581  
	674.014  
	295.243  
	200.854  
	368.433  
	477.961  
	469.06   
	51.6012  
	33.2838  
	381.477  
	148.091  
	-118.831 
	-72.4835 
	-70.6639 
	-15.4557 
	68.064   
	174.939  
	177.902  
	23.2692  
	97.3497  
	223.122  
	212.969  
	90.5392  
	67.8312  
	289.345  
	295.995  
	120.602  
	-2.26379 
	-21.2602 
	4.14662  
	-77.1322 
	-157.843 
	-122.91  
	0.691311 
	148.402  
	233.638  
	58.9474  
	-117.462 
	-11.6763 
	-51.3873 
	-271.322 
	-199.808 
	35.0395  
	20.8754  
	-82.8503 
	-68.4742 
	-75.0283 
	-104.839 
	-92.4459 
	-55.0753 
	41.0317  
	179.788  
	223.426  
	280.154  
	430.021  
	434.186  
	524.956  
	794.024  
	800      
	800      
	602.383  
	587.076  
	529.968  
	121.882  
	126.336  
	458.572  
	525.466  
	381.788  
	388.922  
	396.555  
	99.5051  
	110.952  
	268.138  
	-50.2313 
	-296.803 
	-312.171 
	-382.683 
	-415.621 
	-306.688 
	-174.861 
	-183.459 
	-38.2301 
	156.604  
	66.8917  
	253.528  
	561.377  
	628.565  
	800      
	800      
	800      
	800      
	593.798  
	365.452  
	65.2897  
	-101.546 
	-77.3784 
	-230.189 
	-296.635 
	-174.682 
	-142.839 
	-181.742 
	-72.152  
	96.697   
	21.5366  
	-168.462 
	-234.658 
	-236.704 
	-200.574 
	24.3972  
	223.626  
	263.328  
	332.761  
	336.646  
	241.618  
	18.4477  
	-127.592 
	-70.1544 
	-36.9967 
	2.78171  
	3.75211  
	-0.255093
	47.7958  
	61.4622  
	-102.342 
	-390.378 
	-467.377 
	-430.958 
	-321.069 
	-115.676 
	9.91182  
	322.245  
	576.914  
	121.934  
	-170.355 
	280.469  
	473.508  
	515.324  
	779.581  
	800      
	800      
	799.976  
	768.912  
	446.038  
	482.393  
	474.069  
	191.386  
	-124.864 
	-337.44  
	-353.756 
	-259.671 
	-80.493  
	140.276  
	143.182  
	25.3474  
	89.3506  
	40.5708  
	-170.805 
	-181.411 
	-207.313 
	-336.293 
	-364.562 
	-314.581 
	-203.131 
	-153.917 
	-162.139 
	73.9305  
	296.945  
	87.0855  
	79.8479  
	261.313  
	-148.681 
	-424.434 
	-367.974 
	-503.285 
	-360.746 
	-27.9328 
	48.1224  
	17.8843  
	10.2894  
	-45.4148 
	-74.2082 
	-9.48081 
	110.541  
	177.408  
	103.12   
	35.4112  
	145.421  
	230.979  
	97.0272  
	-16.6472 
	-18.2988 
	150.375  
	364.197  
	472.782  
	638.213  
	695.573  
	598.454  
	669.621  
	800      
	654.364  
	373.707  
	124.433  
	-25.4402 
	249.446  
	308.368  
	-40.6149 
	-162.542 
	-77.3551 
	9.23256  
	-3.02916 
	-55.3423 
	67.6686  
	255.474  
	224.577  
	-138.712 
	-544.391 
	-547.243 
	-408.451 
	-322.873 
	-157.723 
	-72.7151 
	-64.0168 
	-43.3832 
	8.72465  
	-55.9525 
	-68.9206 
	88.3852  
	34.0705  
	19.7131  
	-37.4967 
	-338.216 
	-306.31  
	-100.067 
	-46.1935 
	-47.765  
	-119.385 
	-86.5    
	107.523  
	185.591  
	146.313  
	70.0838  
	-27.8564 
	23.71    
	240.185  
	513.814  
	474.844  
	248.235  
	354.404  
	412.909  
	342.372  
	269.651  
	19.647   
	-54.612  
	-168.44  
	-428.643 
	-256.805 
	13.81    
	-83.3412 
	-246.116 
	-278.58  
	-261.396 
	-212.658 
	-191.549 
	-233.141 
	-161.357 
	23.953   
	62.8359  
	-82.4337 
	-274.699 
	-335.866 
	-181.033 
	-28.5893 
	130.421  
	232.544  
	117.273  
	150.468  
	199.454  
	7.14491  
	-283.439 
	-314.833 
	3.2346   
	115.696  
	158.845  
	289.721  
	305.76   
	312.355  
	269.887  
	220.328  
	190.375  
	67.3533  
	-26.0695 
	111.423  
	374.271  
	344.613  
	136.371  
	80.5026  
	223.99   
	557.188  
	381.815  
	-166.41  
	-218.586 
	-0.240208
	96.2025  
	-129.425 
	-275.113 
	-206.592 
	-428.283 
	-440.964 
	-31.7049 
	177.972  
	78.462   
	71.8749  
	231.403  
	421.705  
	800      
	799.976  
	607.722  
	-11.5419 
	-220.6   
	-210.111 
	-79.8813 
	42.2002  
	214.712  
	285.431  
	-65.8989 
	-203.584 
	-191.078 
	-343.113 
	-432.616 
	-562.927 
	-569.622 
	-615.598 
	-800     
	-510.044 
	-150.095 
	122.953  
	296.166  
	371.732  
	253.125  
	139.351  
	118.82   
	88.2288  
	32.8168  
	-81.4684 
	-191.123 
	-88.7353 
	136.415  
	144.134  
	96.5922  
	116.582  
	143.582  
	110.213  
	28.4171  
	-11.3939 
	-244.722 
	-365.118 
	-310.184 
	-298.379 
	-215.4   
	-337.461 
	-531.71  
	-430.68  
	-205.275 
	-21.7356 
	219.143  
	371.954  
	413.108  
	312.326  
	223.271  
	360.708  
	232      
	-45.6662 
	149.817  
	492.985  
	294.61   
	64.6078  
	-3.39429 
	-232.347 
	18.1483  
	270.757  
	35.4824  
	-61.7097 
	-272.674 
	-435.994 
	-271.63  
	-94.5272 
	-200.279 
	-117.826 
	73.9879  
	-12.0081 
	-156.454 
	-526.805 
	-800     
	-604.595 
	-391.668 
	-563.497 
	-285.84  
	4.51346  
	-46.9846 
	100.743  
	218.996  
	161.02   
	275.111  
	245.006  
	86.295   
	137.036  
	133.656  
	26.1811  
	41.5225  
	120.74   
	144.952  
	175.655  
	160.348  
	82.2871  
	-113.289 
	-457.55  
	-525.007 
	-195.104 
	25.7586  
	-131.832 
	-61.8737 
	407.429  
	614.522  
	654.316  
	800      
	800      
	556.895  
	249.64   
	-164.771 
	-416.298 
	-316.388 
	-116.077 
	-95.1507 
	-372.59  
	-319.374 
	-53.2998 
	-171.789 
	-153.611 
	20.8555  
	125.746  
	124.534  
	-174.15  
	-298.484 
	-219.626 
	-450.171 
	-800     
	-686.331 
	-370.222 
	-120.247 
	-51.2621 
	-44.4823 
	-101.4   
	-18.1333 
	249.593  
	378.224  
	140.747  
	-130.6   
	-189.722 
	-255.952 
	-442.793 
	-611.891 
	-547.052 
	-470.653 
	-370.274 
	-289.696 
	-448.691 
	-427.528 
	-92.7354 
	307.258  
	580.712  
	660.425  
	506.736  
	167.574  
	78.5238  
	238.113  
	392.084  
	624.328  
	753.302  
	800      
	799.976  
	800      
	800      
	799.976  
	574.877  
	-31.3483 
	-485.938 
	-646.418 
	-581.636 
	-478.732 
	-436.901 
	-359.514 
	-204.295 
	-200.3   
	-208.459 
	-105.551 
	-104.571 
	-94.8616 
	-18.0705 
	-79.136  
	-51.7176 
	-113.159 
	-286.366 
	-362.877 
	-451.879 
	-319.243 
	-239.711 
	-271.358 
	-177.478 
	-181.558 
	-164.118 
	35.7836  
	96.7426  
	-82.6408 
	-252.539 
	-331.286 
	-439.494 
	-458.422 
	-602.953 
	-800     
	-800     
	-800     
	-194.974 
	278.482  
	269.689  
	356.403  
	710.694  
	727.282  
	497.147  
	312.18   
	7.89833  
	-26.5567 
	126.059  
	-22.5002 
	-42.3121 
	-20.8902 
	-293.836 
	-295.038 
	-47.3515 
	-127.997 
	-237.052 
	-25.671  
	58.6485  
	40.0251  
	151.27   
	159.083  
	280.617  
	411.946  
	383.729  
	579.012  
	799.976  
	799.976  
	800      
	352.705  
	191.279  
	229.383  
	331.418  
	324.476  
	402.647  
	276.152  
	-242.068 
	-704.213 
	-800     
	-800     
	-800     
	-800     
	-800     
	-800     
	-487.903 
	-426.322 
	-455.934 
	-537.712 
	-577.724 
	-478.437 
	-285.09  
	-194.525 
	-172.523 
	-182.028 
	-278.444 
	-279.846 
	-288.855 
	-258.407 
	-79.8412 
	75.6559  
	196.298  
	193.172  
	8.26478  
	-258.418 
	-377.081 
	-380.102 
	-436.559 
	-262.803 
	101.168  
	377.133  
	582.599  
	799.118  
	800      
	644.435  
	501.362  
	670.934  
	626.888  
	304.5    
	-27.548  
	-15.6909 
	159.271  
	158.069  
	191.723  
	267.023  
	118.807  
	-404.824 
	-800     
	-800     
	-800     
	-620.239 
	-226.813 
	-119.504 
	67.3128  
	123.822  
	-239.35  
	-527.47  
	-527.061 
	-300.304 
	-227.735 
	-123.473 
	218.966  
	408.047  
	341.739  
	278.874  
	307.617  
	169.082  
	-161.029 
	-498.248 
	-690.072 
	-800     
	-800     
	-649.282 
	-518.493 
	-542.175 
	-611.106 
	-407.07  
	15.7848  
	210.664  
	446.714  
	579.364  
	376.29   
	52.1793  
	-235.612 
	-358.05  
	-158.636 
	22.4735  
	-109.207 
	-151.588 
	-115.374 
	-134.67  
	-86.0729 
	-110.058 
	-225.342 
	-232.259 
	-101.646 
	0.402507 
	-72.3811 
	-160.784 
	-162.92  
	-241.299 
	-311.627 
	-244.769 
	-231.527 
	-135.258 
	299.792  
	644.678  
	732.319  
	665.156  
	430.919  
	413.155  
	420.913  
	69.3761  
	-280.644 
	-425.998 
	-272.385 
	76.3836  
	233.684  
	163.412  
	-74.6358 
	-264.965 
	-543.841 
	-800     
	-800     
	-631.672 
	-585.724 
	-358.051 
	-132.905 
	-125.264 
	-126.614 
	17.9712  
	-28.8935 
	-163.526 
	-114.656 
	-116.83  
	-91.2917 
	95.5451  
	490.476  
	540.163  
	312.283  
	400.82   
	71.4677  
	-544.468 
	-496.464 
	188.543  
	481.002  
	211.404  
	168.735  
	175.979  
	333.798  
	423.319  
	276.004  
	386.633  
	329.951  
	100.029  
	-38.2615 
	-335.882 
	-480.059 
	-383.492 
	-414.014 
	-296.132 
	-5.85721 
	-74.2387 
	-305.472 
	-344.703 
	-427.251 
	-469.935 
	-409.876 
	-508.595 
	-800     
	-800     
	-598.371 
	-609.146 
	-645.218 
	-613.391 
	-577.429 
	-571.487 
	-464.333 
	-189.448 
	-81.2098 
	-68.6172 
	-85.6348 
	-11.5929 
	73.1635  
	-87.9554 
	-85.0334 
	7.10554  
	-100.424 
	-260.24  
	-432.706 
	-568.724 
	-566.359 
	-514.534 
	-297.825 
	-106.136 
	-228.379 
	-240.241 
	-435.478 
	-573.101 
	-155.811 
	-104.492 
	-183.444 
	76.4473  
	165.696  
	122.187  
	-313.252 
	-800     
	-800     
	-468.96  
	-563.323 
	-554.48  
	-542.386 
	-530.144 
	-310.284 
	-127.254 
	-110.891 
	-118.463 
	-315.246 
	-443.364 
	-374.135 
	-596.974 
	-800     
	-800     
	-800     
	-800     
	-800     
	-588.922 
	-466.271 
	-441.05  
	-484.293 
	-519.357 
	-451.961 
	-450.426 
	-800     
	-800     
	-800     
	-800     
	-800     
	-800     
	-800     
	-800     
	-800     
	-616.583 
	-464.489 
	-800     
	-641.156 
	-324.668 
	-186.418 
	-257.703 
	-501.396 
	-524.769 
	-385.482 
	-186.725 
	-112.004 
	-458.195 
	-800     
	-800     
	-800     
	-800     
	-800     
	-800     
	-800     
	-800     
	-800     
	-800     
	-800     
	-420.598 
	-28.3536 
	-42.5933 
	-280.423 
	-307.408 
	-175.361 
	-340.938 
	-493.13  
	-315.829 
	-228.352 
	-237.483 
	-444.652 
	-542.207 
	-476.915 
	-484.65  
	-513.982 
	-577.04  
	-800     
	-800     
	-800     
	-800     
	-800     
	-800     
	-800     
	-800     
	-800     
	-800     
	-800     
	-800     
	-800     
	-800     
	-800     
	-635.246 
	-618.341 
	-620.712 
	-800     
	-800     
	-800     
	-800     
	-535.954 
	-449.868 
	-524.144 
	-800     
	-800     
	-800     
	-800     
	-800     
	-151.12  
	-129.615 
	-545.213 
	-800     
	-548.796 
	-376.39  
	-376.144 
	-578.417 
	-800     
	-800     
	-800     
	-800     
	-800     
	-800     
	-800     
	-800     
	-614.523 
	-800     
	-800     
	-800     
	-800     
	-800     
	-580.315 
	-800     
	-800     
	-456.875 
	-174.127 
	-227.044 
	-511.065 
	-800     
	-800     
	-800     
	-800     
	-800     
	-800     
	-800     
	-800     
	-436.635 
	-53.0681 
	-45.8703 
	-225.424 
	-800     
	-800     
	-800     
	-800     
	-800     
	-800     
	-800     
	-617.646 
	-800     
	-615.457 
	-575.125 
	-800     
	-800     
	-800     
	-800     
	-800     
	-800     
	-800     
	-800     
	-800     
	-800     
	-800     
	-800     
	-800     
	-800     
	-800     
	-800     
	-800     
	-800     
	-800     
	-800     
	-800     
	-800     
	-800     
	-800     
	-800     
	-800     
	-800     
	-800     
	-800     
	-800     
	-800     
	-800     
	-800     
	-800     
	-800     
	-800     
	-800     
	-800     
	-800     
	-800     
	-800     
	-800     
	-800     
	-800     
	-800     
	-800     
	-800     
	-800     
	-800     
	-800     
	-800     
	-800     
	-800     
	-800     
	-800     
	-800     
	-800     
	-800     
	-800     
	-800     
	-800     
	-800     
	-800     
	-800     
	-800     
	-800     
	-800     
	-800     
	-800     
	-800     
	-800     
	-800     
	-800     
	-800     
	-800     
	-800     
	-800     
	-800     
	-800     
	-800     
	-800     
	-800     
	-800     
	-800     
	-800     
	-800     
	-800     
	-800     
	-800     
	-800     
	-800     
	-800     
	-800     
	-800     
	-800     
	-800     
	-800     
	-800     
	-800     
	-800     
	-800     
	-800     
	-800     
	-800     
	-800     
	-800     
	-800     
	-800     
	-800     
	-800     
	-800     
	-800     
	-800     
	-800     
	-800     
	-800     
	-800     
	-800     
	-800     
	-800     
	-800     
	-800     
	-800     
	-800     
	-800     
	-800     
	-800     
	-800     
	-800     
	-800     
	-800     
	-800     
	-800     
	-800     
	-800     
	-800     
	-800     
	-800     
	-800     
	-800     
	-800     
	-800     
	-800     
	-800     
	-800     
	-800     
	-800     
	-800     
	-800     
	-800     
	-800     
	-800     
	-800     
	-800     
	-800     
	-800     
	-800     
	-800     
	-800     
	-800     
	-800     
	-800     
	-800     
	-800     
	-800     
	-800     
	-800     
	-800     
	-800     
	-800     
	-800     
	-800     
	-800     
	-800     
	-800     
	-800     
	-800     
	-800     
	-800     
	-800     
	-800     
	-800     
	-800     
	-800     
	-800     
	-800     
	-800     
	-800     
	-800     
	-800     
	-800     
	-800     
	-800     
	-800     
	-800     
	-800     
	-800     
	-800     
	-800     
	-800     
	-800     
	-800     
	-800     
	-800     
	-800     
	-800     
	-800     
	-800     
	-800     
	-800     
	-800     
	-800     
	-800     
	-800     
	-800     
	-800     
	-800     
	-800     
	-800     
	-800     
	-800     
	-800     
	-800     
	-800     
	-800     
	-800     
	-800     
	-800     
	-800     
	-800     
	-800     
	-800     
	-800     
	-800     
	-800     
	-800     
	-800     
	-800     
	-800     
	-800     
	-800     
	-800     
	-800     
	-800     
	-800     
	-800     
	-800     
	-800     
	-800     
	-800     
	-800     
	-800     
	-800     
	-800     
	-800     
	-800     
	-800     
	-800     
	-800     
	-800     
	-800     
	-800     
	-800     
	-800     
	-800     
	-800     
	-800     
	-800     
	-800     
	-800     
	-800     
	-800     
	-800     
	-800     
	-800     
	-800     
	-800     
	-800     
	-800     
	-800     
	-800     
	-800     
	-800     
	-800     
	-800     
	-800     
	-800     
	-800     
	-800     
	-800     
	-800     
	-800     
	-800     
	-800     
	-800     
	-800     
	-800     
	-800     
	-800     
	-800     
	-800     
	-800     
	-800     
	-800     
	-800     
	-800     
	-800     
	-800     
	-800     
	-800     
	-800     
	-800     
	-800     
	-800     
	-800     
	-800     
	-800     
	-800     
	-800     
	-800     
	-800     
	-800     
	-800     
	-800     
	-800     
	-800     
	-800     
	-800     
	-800     
	-800     
	-800     
	-800     
	-800     
	-800     
	-800     
	-800     
	-800     
	-800     
	-800     
	-800     
	-800     
	-800     
	-800     
	-800     
	-800     
	-800     
	-800     
	-800     
	-800     
	-800     
	-800     
	-800     
	-800     
	-800     
	-800     
	-800     
	-800     
	-800     
	-800     
	-800     
	-800     
	-800     
	-800     
	-800     
	-800     
	-800     
	-800     
	-800     
	-800     
	-800     
	-800     
	-800     
	-800     
	-800     
	-800     
	-800     
	-800     
	-800     
	-800     
	-800     
	-800     
	-800     
	-800     
	-800     
	-800     
	-800     
	-800     
	-800     
	-800     
	-800     
	-800     
	-800     
	-800     
	-800     
	-800     
	-800     
	-800     
	-800     
	-800     
	-800     
	-800     
	-800     
	-800     
	-800     
	-800     
	-800     
	-800     
	-800     
	-800     
	-800     
	-800     
	-800     
	-800     
	-800     
	-800     
	-800     
	-800     
	-800     
	-800     
	-800     
	-800     
	-800     
	-800     
	-800     
	-800     
	-800     
	-800     
	-800     
	-800     
	-800     
	-800     
	-800     
	-800     
	-800     
	-800     
	-800     
	-800     
	-800     
	-800     
	-800     
	-800     
	-800     
	-800     
	-800     
	-800     
	-800     
	-800     
	-800     
	-800     
	-800     
	-800     
	-800     
	-800     
	-800     
	-800     
	-800     
	-800     
	-800     
	-800     
	-800     
	-800     
	-800     
	-800     
	-800     
	-800     
	-800     
	-800     
	-800     
	-800     
	-800     
	-800     
	-800     
	-800     
	-800     
	-800     
	-800     
	-800     
	-800     
	-800     
	-800     
	-800     
	-800     
	-800     
	-800     
	-800     
	-800     
	-800     
	-800     
	-800     
	-800     
	-800     
	-800     
	-800     
	-800     
	-800     
	-800     
	-800     
	-800     
	-800     
	-800     
	-800     
	-800     
	-800     
	-800     
	-800     
	-800     
	-800     
	-800     
	-800     
	-800     
	-800     
	-800     
	-800     
	-800     
	-800     
	-800     
	-800     
	-800     
	-800     
	-800     
	-800     
	-800     
	-800     
	-800     
	-800     
	-800     
	-800     
	-800     
	-800     
	-800     
	-800     
	-800     
	-800     
	-800     
	-800     
	-800     
	-800     
	-800     
	-800     
	-800     
	-800     
	-800     
	-800     
	-800     
	-800     
	-800     
	-800     
	-800     
	-800     
	-800     
	-800     
	-800     
	-800     
	-800     
	-800     
	-800     
	-800     
	-800     
	-800     
	-800     
	-800     
	-800     
	-800     
	-800     
	-800     
	-800     
	-800     
	-800     
	-800     
	-800     
	-800     
	-800     
	-800     
	-800     
	-800     
	-800     
	-800     
	-800     
	-800     
	-800     
	-800     
	-800     
	-800     
	-800     
	-800     
	-800     
	-800     
	-800     
	-800     
	-800     
	-800     
	-800     
	-800     
	-800     
	-800     
	-800     
	-800     
	-800     
	-800     
	-800     
	-800     
	-800     
	-800     
	-800     
	-800     
	-800     
	-800     
	-800     
	-800     
	-800     
	-800     
	-800     
	-800     
	-800     
	-800     
	-800     
	-800     
	-800     
	-800     
	-800     
	-800     
	-800     
	-800     
	-800     
	-800     
	-800     
	-800     
	-800     
	-800     
	-800     
	-800     
	-800     
	-800     
	-800     
	-800     
	-800     
	-800     
	-800     
	-800     
	-800     
	-800     
	-800     
	-800     
	-800     
	-800     
	-800     
	-800     
	-800     
	-800     
	-800     
	-800     
	-800     
	-800     
	-800     
	-800     
	-800     
	-800     
	-800     
	-800     
	-800     
	-800     
	-800     
	-800     
	-800     
	-800     
	-800     
	-800     
	-800     
	-800     
	-800     
	-800     
	-800     
	-800     
	-800     
	-800     
	-800     
	-800     
	-800     
	-800     
	-800     
	-800     
	-800     
	-800     
	-800     
	-800     
	-800     
	-800     
	-800     
	-800     
	-800     
	-800     
	-800     
	-800     
	-800     
	-800     
	-800     
	-800     
	-800     
	-800     
	-800     
	-800     
	-800     
	-800     
	-800     
	-800     
	-800     
	-800     
	-800     
	-800     
	-800     
	-800     
	-800     
	-800     
	-800     
	-800     
	-800     
	-800     
	-800     
	-800     
	-800     
	-800     
	-800     
	-800     
	-800     
	-800     
	-800     
	-800     
	-800     
	-800     
	-800     
	-800     
	-800     
	-800     
	-800     
	-800     
	-800     
	-800     
	-800     
	-800     
	-800     
	-800     
	-800     
	-800     
	-800     
	-800     
	-800     
	-800     
	-800     
	-800     
	-800     
	-800     
	-800     
	-800     
	-800     
	-800     
	-800     
	-800     
	-800     
	-800     
	-800     
	-800     
	-800     
	-800     
	-800     
	-800     
	-800     
	-800     
	-800     
	-800     
	-800     
	-800     
	-800     
	-800     
	-800     
	-800     
	-800     
	-800     
	-800     
	-800     
	-800     
	-800     
	-800     
	-800     
	-800     
	-800     
	-800     
	-800     
	-800     
	-800     
	-800     
	-800     
	-800     
	-800     
	-800     
	-800     
	-800     
	-800     
	-800     
	-800     
	-800     
	-447.183 
	-483.147 
	-565.434 
	-800     
	-800     
	-800     
	-800     
	-800     
	-800     
	-800     
	-800     
	-800     
	-800     
	-800     
	-800     
	-800     
	-800     
	-800     
	-800     
	-800     
	-800     
	-800     
	-800     
	-800     
	-800     
	-800     
	-800     
	-800     
	-800     
	-800     
	-563.246 
	-574.209 
	-435.61  
	-419.008 
	-800     
	-504.879 
	-567.369 
	-800     
	-800     
	-800     
	-800     
	-800     
	-800     
	-800     
	-800     
	-800     
	-800     
	-800     
	-800     
	-800     
	-800     
	-800     
	-800     
	-800     
	-800     
	-800     
	-800     
	-800     
	-800     
	-800     
	-800     
	-800     
	-800     
	-385.196 
	-224.538 
	-451.293 
	-517.298 
	-426.149 
	-530.959 
	-800     
	-800     
	-800     
	-800     
	-800     
	-593.692 
	-490.277 
	-486.865 
	-526.802 
	-514.419 
	-800     
	-800     
	-550.328 
	-469.947 
	-504.745 
	-518.331 
	-496.036 
	-478.32  
	-800     
	-800     
	-364.634 
	-140.817 
	17.9413  
	179.766  
	141.134  
	4.52166  
	13.733   
	-78.8082 
	-354.547 
	-527.299 
	-395.496 
	-106.497 
	-9.80507 
	-79.0572 
	-173.326 
	-304.052 
	-401.653 
	-338.772 
	-205.958 
	-368.039 
	-800     
	-538.863 
	-341.036 
	-287.465 
	-47.7684 
	-35.2634 
	-425.942 
	-554.338 
	-800     
	-570.367 
	-327.211 
	-350.692 
	-282.395 
	13.44    
	36.0008  
	-38.2402 
	37.9319  
	44.7631  
	-99.3261 
	-186.386 
	-177.79  
	-295.069 
	-419.517 
	-418.555 
	-485.183 
	-458.438 
	-325.326 
	-260.125 
	-217.292 
	-156.563 
	-27.4347 
	84.2793  
	93.2914  
	18.0887  
	-74.4363 
	-177.421 
	-262.895 
	-211.129 
	-190.608 
	-279.813 
	-257.114 
	-106.161 
	-107.62  
	-168.492 
	-25.4624 
	11.3674  
	-92.9258 
	-16.6994 
	177.217  
	273.788  
	275.126  
	294.364  
	283.394  
	285.543  
	349.519  
	336.592  
	252.174  
	132.304  
	135.226  
	407.687  
	438.53   
	119.839  
	-61.5395 
	-221.356 
	-146.009 
	143.544  
	117.297  
	63.5863  
	119.59   
	128.414  
	-66.8834 
	-364.255 
	-329.714 
	-77.8643 
	240.171  
	555.656  
	516.266  
	416.996  
	661.56   
	672.094  
	465.771  
	613.776  
	537.52   
	53.7586  
	125.147  
	541.999  
	497.073  
	405.914  
	567.129  
	593.208  
	315.397  
	124.748  
	-45.0784 
	-541.181 
	-579.723 
	-226.57  
	-232.826 
	-310.023 
	-283.121 
	-198.024 
	-55.6457 
	112.831  
	227.817  
	266.511  
	359.402  
	401.287  
	341.918  
	321.444  
	328.79   
	376.147  
	390.878  
	314.894  
	360.912  
	381.745  
	192.604  
	125.776  
	217.176  
	217.718  
	248.723  
	330.403  
	321.585  
	324.418  
	339.88   
	316.873  
	309.251  
	399.891  
	576.557  
	592.3    
	493.205  
	490.373  
	510.839  
	463.168  
	394.244  
	415.111  
	461.306  
	527.365  
	537.64   
	394.524  
	376.512  
	429.682  
	351.552  
	305.766  
	343.093  
	403.571  
	512.179  
	543.166  
	525.069  
	605.13   
	564.696  
	444.579  
	523.402  
	684.006  
	656.569  
	498.888  
	418.115  
	509.55   
	670.692  
	800      
	799.976  
	800      
	645.366  
	621.881  
	728.785  
	800      
	730.197  
	530.79   
	471.909  
	420.823  
	458.08   
	476.802  
	403.828  
	391.286  
	434.086  
	559.98   
	545.094  
	416.794  
	495.499  
	475.101  
	383.934  
	456.189  
	360.984  
	191.444  
	224.621  
	267.638  
	250.962  
	302.247  
	287.726  
	326.77   
	469.622  
	479.933  
	461.832  
	440.083  
	467.596  
	511.448  
	422.822  
	420.562  
	602.824  
	701.569  
	649.05   
	624.069  
	629.723  
	763.955  
	800      
	800      
	799.976  
	799.976  
	799.976  
	800      
	800      
	523.368  
	285.423  
	350.009  
	500.891  
	521.606  
	383.423  
	425.141  
	597.564  
	642.562  
	608.3    
	513.37   
	517.281  
	398.058  
	198.74   
	426.983  
	760.921  
	747.828  
	707.49   
	754.231  
	558.461  
	310.108  
	270.595  
	395.87   
	684.011  
	800      
	799.976  
	799.976  
	799.976  
	799.976  
	799.976  
	800      
	799.976  
	800      
	796.43   
	638.996  
	468.055  
	443.391  
	486.825  
	569.422  
	766.112  
	799.976  
	799.976  
	774.4    
	771.111  
	780.365  
	682.232  
	645.969  
	674.997  
	621.796  
	593.94   
	526.111  
	416.164  
	446.356  
	530.493  
	639.448  
	632.048  
	561.342  
	686.312  
	729.24   
	691.547  
	779.612  
	800      
	800      
	800      
	799.976  
	799.976  
	800      
	800      
	800      
	716.688  
	703.8    
	746.743  
	771.702  
	800      
	799.976  
	799.976  
	799.976  
	777.692  
	443.752  
	524.454  
	743.888  
	800      
	799.976  
	799.976  
	799.976  
	799.976  
	799.976  
	799.976  
	799.976  
	800      
	758.957  
	682.914  
	522.085  
	445.782  
	673.754  
	799.976  
	799.976  
	799.976  
	799.976  
	799.976  
	799.976  
	799.976  
	799.976  
	799.976  
	799.976  
	799.976  
	800      
	623.951  
	552.358  
	435.971  
	423.856  
	529.207  
	731.558  
	759.4    
	723.113  
	776.02   
	688.116  
	638.061  
	623.394  
	502.898  
	447.924  
	455.446  
	444.709  
	444.944  
	460.008  
	508.655  
	668.36   
	796.934  
	752.552  
	761.256  
	799.976  
	799.976  
	765.894  
	799.976  
	799.976  
	785.988  
	755.335  
	799.976  
	792.912  
	627.656  
	597.35   
	583.175  
	729.52   
	799.976  
	799.976  
	799.976  
	799.976  
	799.976  
	799.976  
	799.976  
	799.976  
	799.976  
	799.976  
	784.951  
	799.976  
	799.976  
	799.976  
	799.976  
	799.976  
	799.976  
	799.976  
	799.976  
	799.976  
	799.976  
	799.976  
	799.976  
	799.976  
	799.976  
	799.976  
	799.976  
	799.976  
	799.976  
	799.976  
	799.976  
	799.976  
	746.324  
	799.976  
	799.976  
	772.747  
	762.681  
	687.924  
	516.938  
	478.451  
	468.134  
	472.788  
	537.484  
	461.835  
	374.644  
	474.771  
	598.368  
	713.122  
	773.511  
	799.976  
	799.976  
	799.976  
	799.976  
	799.976  
	799.976  
	799.976  
	799.976  
	799.976  
	761.467  
	689.444  
	678.315  
	753.478  
	754.156  
	770.71   
	799.976  
	741.427  
	799.976  
	799.976  
	799.976  
	799.976  
	799.976  
	799.976  
	799.976  
	799.976  
	799.976  
	799.976  
	799.976  
	799.976  
	799.976  
	799.976  
	727.688  
	703.828  
	799.976  
	799.976  
	799.976  
	799.976  
	799.976  
	799.976  
	799.976  
	799.976  
	799.976  
	799.976  
	799.976  
	799.976  
	799.976  
	744.941  
	643.339  
	635.565  
	799.976  
	799.976  
	799.976  
	731.419  
	674.087  
	664.45   
	799.976  
	748.908  
	630.81   
	644.328  
	622.625  
	634.062  
	684.088  
	718.239  
	741.52   
	734.659  
	799.976  
	799.976  
	799.976  
	799.976  
	799.976  
	799.976  
	799.976  
	799.976  
	799.976  
	799.976  
	799.976  
	799.976  
	799.976  
	799.976  
	799.976  
	799.976  
	799.976  
	799.976  
	799.976  
	799.976  
	799.976  
	799.976  
	799.976  
	799.976  
	799.976  
	799.976  
	799.976  
	799.976  
	799.976  
	799.976  
	799.976  
	799.976  
	799.976  
	799.976  
	799.976  
	799.976  
	799.976  
	799.976  
	799.976  
	799.976  
	799.976  
	799.976  
	799.976  
	799.976  
	799.976  
	799.976  
	799.976  
	799.976  
	799.976  
	799.976  
	799.976  
	799.976  
	799.976  
	799.976  
	799.976  
	799.976  
	799.976  
	799.976  
	799.976  
	799.976  
	799.976  
	799.976  
	799.976  
	799.976  
	799.976  
	799.976  
	799.976  
	799.976  
	799.976  
	799.976  
	799.976  
	799.976  
	799.976  
	799.976  
	630.807  
	694.498  
	799.976  
	799.976  
	799.976  
	799.976  
	799.976  
	799.976  
	799.976  
	799.976  
	799.976  
	799.976  
	799.976  
	799.976  
	799.976  
	799.976  
	799.976  
	799.976  
	799.976  
	799.976  
	799.976  
	799.976  
	799.976  
	799.976  
	799.976  
	799.976  
	799.976  
	799.976  
	799.976  
	799.976  
	799.976  
	799.976  
	799.976  
	799.976  
	799.976  
	799.976  
	799.976  
	799.976  
	799.976  
	799.976  
	799.976  
	799.976  
	799.976  
	799.976  
	799.976  
	799.976  
	799.976  
	799.976  
	799.976  
	717.507  
	799.976  
	799.976  
	693.593  
	513.718  
	639.12   
	695.99   
	799.976  
	799.976  
	799.976  
	799.976  
	799.976  
	799.976  
	799.976  
	799.976  
	799.976  
	799.976  
	799.976  
	799.976  
	799.976  
	799.976  
	799.976  
	799.976  
	799.976  
	799.976  
	799.976  
	799.976  
	799.976  
	799.976  
	799.976  
	799.976  
	799.976  
	799.976  
	627.676  
	662.494  
	799.976  
	799.976  
	799.976  
	799.976  
	799.976  
	799.976  
	799.976  
	799.976  
	799.976  
	799.976  
	799.976  
	799.976  
	799.976  
	799.976  
	799.976  
	799.976  
	799.976  
	799.976  
	799.976  
	799.976  
	799.976  
	799.976  
	799.976  
	799.976  
	799.976  
	799.976  
	799.976  
	799.976  
	799.976  
	713.272  
	799.976  
	799.976  
	799.976  
	799.976  
	799.976  
	799.976  
	799.976  
	799.976  
	799.976  
	799.976  
	799.976  
	799.976  
	799.976  
	799.976  
	799.976  
	799.976  
	799.976  
	799.976  
	799.976  
	799.976  
	799.976  
	799.976  
	799.976  
	799.976  
	799.976  
	799.976  
	799.976  
	799.976  
	799.976  
	799.976  
	799.976  
	799.976  
	799.976  
	799.976  
	799.976  
	799.976  
	799.976  
	799.976  
	799.976  
	799.976  
	799.976  
	799.976  
	799.976  
	799.976  
	799.976  
	799.976  
	673.243  
	799.976  
	799.976  
	799.976  
	799.976  
	799.976  
	799.976  
	799.976  
	799.976  
	799.976  
	799.976  
	799.976  
	799.976  
	799.976  
	799.976  
	799.976  
	799.976  
	799.976  
	799.976  
	799.976  
	799.976  
	799.976  
	799.976  
	799.976  
	713.463  
	799.976  
	799.976  
	709.069  
	799.976  
	694.781  
	588.468  
	545.918  
	563.5    
	680.783  
	715.013  
	632.004  
	624.178  
	687.272  
	799.976  
	799.976  
	799.976  
	799.976  
	799.976  
	799.976  
	799.976  
	799.976  
	799.976  
	799.976  
	799.976  
	799.976  
	799.976  
	799.976  
	799.976  
	799.976  
	799.976  
	799.976  
	799.976  
	799.976  
	799.976  
	799.976  
	799.976  
	799.976  
	799.976  
	799.976  
	799.976  
	799.976  
	799.976  
	799.976  
	799.976  
	799.976  
	799.976  
	799.976  
	799.976  
	799.976  
	799.976  
	799.976  
	799.976  
	799.976  
	799.976  
	799.976  
	799.976  
	799.976  
	799.976  
	799.976  
	703.099  
	799.976  
	681.554  
	799.976  
	799.976  
	636.902  
	556.674  
	564.406  
	587.318  
	799.976  
	674.385  
	569.257  
	700.529  
	799.976  
	799.976  
	799.976  
	799.976  
	799.976  
	799.976  
	799.976  
	799.976  
	799.976  
	799.976  
	799.976  
	799.976  
	799.976  
	799.976  
	799.976  
	799.976  
	799.976  
	799.976  
	799.976  
	799.976  
	799.976  
	799.976  
	799.976  
	799.976  
	799.976  
	799.976  
	799.976  
	799.976  
	799.976  
	799.976  
	799.976  
	799.976  
	799.976  
	799.976  
	799.976  
	799.976  
	799.976  
	799.976  
	799.976  
	552.789  
	384.547  
	345.162  
	589.837  
	799.976  
	547.041  
	417.859  
	651.884  
	685.583  
	799.976  
	799.976  
	487.162  
	552.783  
	664.964  
	621.612  
	635.953  
	687.731  
	799.976  
	799.976  
	799.976  
	799.976  
	799.976  
	799.976  
	799.976  
	799.976  
	799.976  
	538.577  
	503.902  
	799.976  
	799.976  
	799.976  
	593.589  
	509.199  
	799.976  
	799.976  
	799.976  
	799.976  
	799.976  
	799.976  
	799.976  
	799.976  
	799.976  
	799.976  
	799.976  
	799.976  
	799.976  
	799.976  
	799.976  
	799.976  
	799.976  
	799.976  
	799.976  
	799.976  
	561.704  
	608.306  
	799.976  
	799.976  
	607.135  
	572.696  
	799.976  
	799.976  
	799.976  
	799.976  
	799.976  
	799.976  
	799.976  
	799.976  
	799.976  
	799.976  
	799.976  
	799.976  
	799.976  
	799.976  
	513.493  
	526.77   
	799.976  
	799.976  
	799.976  
	799.976  
	641.317  
	406.1    
	321.308  
	84.426   
	-12.3949 
	151.975  
	345.159  
	503.562  
	611.787  
	799.976  
	799.976  
	799.976  
	799.976  
	799.976  
	799.976  
	631.562  
	494.611  
	344.186  
	277.047  
	428.92   
	595.019  
	799.976  
	799.976  
	799.976  
	799.976  
	799.976  
	799.976  
	799.976  
	799.976  
	659.729  
	655.046  
	799.976  
	799.976  
	799.976  
	799.976  
	799.976  
	799.976  
	799.976  
	799.976  
	799.976  
	799.976  
	799.976  
	799.976  
	799.976  
	799.976  
	799.976  
	435.024  
	184.537  
	48.0385  
	-168.206 
	-97.3252 
	170.989  
	185.862  
	77.0451  
	-41.0553 
	-24.5139 
	55.4861  
	106.53   
	275.334  
	393.868  
	404.321  
	483.025  
	651.096  
	799.976  
	799.976  
	799.976  
	799.976  
	799.976  
	799.976  
	799.976  
	799.976  
	799.976  
	799.976  
	799.976  
	799.976  
	799.976  
	799.976  
	799.976  
	799.976  
	610.282  
	659.109  
	799.976  
	799.976  
	799.976  
	799.976  
	799.976  
	799.976  
	799.976  
	799.976  
	799.976  
	799.976  
	799.976  
	799.976  
	799.976  
	799.976  
	799.976  
	406.956  
	360.041  
	386.192  
	579.934  
	799.976  
	799.976  
	799.976  
	799.976  
	799.976  
	799.976  
	650.38   
	649.3    
	799.976  
	799.976  
	799.976  
	799.976  
	799.976  
	799.976  
	799.976  
	593.245  
	580.151  
	626.181  
	556.486  
	440.872  
	332.916  
	223.578  
	195.058  
	174.86   
	171.969  
	255.624  
	274.289  
	329.53   
	381.52   
	259.333  
	341.359  
	589.115  
	799.976  
	799.976  
	799.976  
	799.976  
	799.976  
	799.976  
	799.976  
	799.976  
	799.976  
	799.976  
	799.976  
	799.976  
	799.976  
	605.956  
	799.976  
	799.976  
	640.034  
	799.976  
	799.976  
	799.976  
	799.976  
	799.976  
	799.976  
	799.976  
	799.976  
	799.976  
	799.976  
	799.976  
	799.976  
	799.976  
	799.976  
	799.976  
	799.976  
	799.976  
	799.976  
	799.976  
	145.275  
	-41.9563 
	455.53   
	799.976  
	799.976  
	799.976  
	799.976  
	799.976  
	799.976  
	433.182  
	151.552  
	238.586  
	228.136  
	337.71   
	571.008  
	466.538  
	399.68   
	288.045  
	131.034  
	245.083  
	371.552  
	510.491  
	799.976  
	799.976  
	799.976  
	579.311  
	501.168  
	465.905  
	478.783  
	525.541  
	434.742  
	371.531  
	418.93   
	522.899  
	799.976  
	799.976  
	799.976  
	799.976  
	799.976  
	799.976  
	799.976  
	799.976  
	799.976  
	799.976  
	599.477  
	542.224  
	516.249  
	524.106  
	579.071  
	799.976  
	799.976  
	799.976  
	799.976  
	799.976  
	799.976  
	799.976  
	799.976  
	799.976  
	617.981  
	799.976  
	188.387  
	-160.882 
	-183.238 
	66.1157  
	227.216  
	116.394  
	-9.14693 
	-50.5457 
	212.485  
	529.412  
	538.805  
	499.52   
	511.774  
	550.908  
	605.53   
	799.976  
	799.976  
	799.976  
	799.976  
	799.976  
	799.976  
	799.976  
	799.976  
	799.976  
	799.976  
	586.29   
	297.932  
	238.588  
	-19.4803 
	-111.715 
	-12.6474 
	137.235  
	233.467  
	459.254  
	799.976  
	475.145  
	464.737  
	541.108  
	408.522  
	120.474  
	193.323  
	412.722  
	504.02   
	799.976  
	799.976  
	799.976  
	799.976  
	799.976  
	799.976  
	799.976  
	580.268  
	356.654  
	315.42   
	440.805  
	401.534  
	518.83   
	799.976  
	530.462  
	799.976  
	799.976  
	799.976  
	799.976  
	799.976  
	562.561  
	417.447  
	799.976  
	799.976  
	578.055  
	559.331  
	577.985  
	799.976  
	799.976  
	799.976  
	799.976  
	799.976  
	378.498  
	277.562  
	184.353  
	96.344   
	329.487  
	395.746  
	201.262  
	205.078  
	544.483  
	799.976  
	799.976  
	799.976  
	799.976  
	799.976  
	799.976  
	799.976  
	799.976  
	799.976  
	569.507  
	333.474  
	466.777  
	799.976  
	799.976  
	799.976  
	799.976  
	799.976  
	799.976  
	799.976  
	555.681  
	349.846  
	157.107  
	81.8082  
	26.2619  
	201.877  
	486.725  
	562.152  
	799.976  
	455.65   
	256.394  
	409.233  
	552.442  
	799.976  
	799.976  
	799.976  
	562.01   
	155.523  
	314.382  
	299.91   
	-238.697 
	-199.319 
	325.781  
	458.684  
	324.205  
	358.668  
	419.702  
	799.976  
	799.976  
	799.976  
	517.109  
	460.693  
	431.873  
	459.962  
	515.073  
	799.976  
	799.976  
	799.976  
	229.336  
	29.4094  
	194.091  
	351.633  
	484.365  
	539.624  
	394.334  
	267.318  
	19.9771  
	-60.6242 
	109.837  
	-56.6681 
	-340.424 
	-235.584 
	108.749  
	282.404  
	355.459  
	454.695  
	536.694  
	799.976  
	799.976  
	799.976  
	799.976  
	799.976  
	799.976  
	457.607  
	295.666  
	375.745  
	799.976  
	799.976  
	799.976  
	799.976  
	799.976  
	390.843  
	64.0463  
	50.2666  
	72.1725  
	113.721  
	187.411  
	256.158  
	349.337  
	460.609  
	799.976  
	799.976  
	799.976  
	799.976  
	799.976  
	799.976  
	799.976  
	799.976  
	318.419  
	259.597  
	394.405  
	538.422  
	384.549  
	99.9121  
	68.5276  
	326.09   
	478.066  
	334.599  
	235.916  
	241.545  
	186.258  
	307.18   
	799.976  
	799.976  
	799.976  
	799.976  
	799.976  
	799.976  
	799.976  
	799.976  
	525.681  
	511.129  
	799.976  
	799.976  
	467.822  
	369.303  
	278.141  
	131.636  
	-2.56786 
	91.3669  
	122.586  
	44.3523  
	195.42   
	411.156  
	511.507  
	500.542  
	421.425  
	372.117  
	473.785  
	799.976  
	799.976  
	799.976  
	799.976  
	799.976  
	799.976  
	799.976  
	799.976  
	799.976  
	799.976  
	799.976  
	390.328  
	69.6063  
	30.986   
	-56.0753 
	-40.2129 
	-31.6978 
	-221.937 
	-144.663 
	49.6166  
	103.5    
	220.724  
	288.627  
	234.276  
	421.28   
	799.976  
	799.976  
	799.976  
	799.976  
	799.976  
	799.976  
	799.976  
	799.976  
	799.976  
	799.976  
	799.976  
	799.976  
	799.976  
	213.235  
	-46.6631 
	-248.314 
	-254.09  
	-82.7513 
	27.9205  
	110.236  
	331.426  
	394.243  
	306.228  
	399.63   
	444.293  
	389.405  
	365.085  
	407.52   
	457.534  
	286.592  
	98.2412  
	-89.7795 
	-60.902  
	263.419  
	474.002  
	799.976  
	799.976  
	799.976  
	799.976  
	288.469  
	-24.8173 
	54.6712  
	118.619  
	100.59   
	21.4465  
	28.9673  
	296.19   
	424.855  
	487.788  
	799.976  
	799.976  
	799.976  
	799.976  
	799.976  
	799.976  
	799.976  
	799.976  
	493.918  
	799.976  
	446.327  
	141.134  
	-162.728 
	-410.502 
	-504.805 
	-448.632 
	-373.198 
	-288.224 
	-224.581 
	-253.817 
	-247.387 
	-33.1333 
	203.108  
	394.536  
	799.976  
	799.976  
	799.976  
	799.976  
	799.976  
	799.976  
	799.976  
	271.471  
	104.564  
	258.201  
	244.933  
	161.908  
	-231.996 
	-622.108 
	-655.327 
	-670.019 
	-593.509 
	-375.261 
	-441.678 
	-661.316 
	-745.902 
	-800     
	-800     
	-499.547 
	120.733  
	379.318  
	428.142  
	519.484  
	799.976  
	799.976  
	467.991  
	77.9496  
	-104.374 
	-202.668 
	-234.507 
	-163.916 
	-60.1649 
	102.49   
	-111.515 
	-608.54  
	-709.811 
	-619.739 
	-584.935 
	-686.763 
	-800     
	-800     
	-800     
	-574.328 
	-280.992 
	121.38   
	505.676  
	799.976  
	799.976  
	799.976  
	799.976  
	799.976  
	518.724  
	-108.811 
	50.3014  
	-24.9178 
	-443.421 
	-494.831 
	-368.211 
	-311.467 
	-165.68  
	-164.636 
	-385.723 
	-567.953 
	-576.541 
	-358.472 
	-47.9321 
	142.482  
	168.116  
	180.019  
	147.24   
	72.1063  
	112.094  
	239.521  
	449.027  
	799.976  
	799.976  
	799.976  
	799.976  
	799.976  
	799.976  
	275.59   
	-102.918 
	-282.217 
	-550.109 
	-718.297 
	-594.403 
	-475.839 
	-501.26  
	-470.07  
	-86.4888 
	336.396  
	799.976  
	799.976  
	799.976  
	799.976  
	424.618  
	-37.4171 
	-324.405 
	-472.384 
	-590.18  
	-535.529 
	-287.829 
	-155.184 
	14.748   
	8.91514  
	-248.378 
	-357.231 
	-454.488 
	-488.657 
	-468.784 
	-589.245 
	-649.649 
	-638.302 
	-559.389 
	-379.695 
	-188.314 
	149.125  
	522.979  
	486.992  
	241.407  
	339.272  
	535.054  
	501.02   
	239.945  
	-37.98   
	-44.8599 
	143.207  
	308.576  
	407.437  
	457.524  
	307.559  
	113.168  
	-87.198  
	-357.506 
	-411.639 
	-394.057 
	-287.092 
	6.58115  
	250.26   
	368.841  
	305.339  
	399.888  
	440.843  
	410.377  
	799.976  
	799.976  
	-21.9963 
	-402.943 
	-280.57  
	370.639  
	799.976  
	799.976  
	799.976  
	799.976  
	123.469  
	-581.812 
	-628.351 
	-450.136 
	-299.185 
	-441.65  
	-574.383 
	-322.194 
	-171.485 
	-52.5232 
	-69.1077 
	-333.011 
	-424.191 
	-364.072 
	-289.554 
	-148.638 
	-328.095 
	-800     
	-800     
	-800     
	-673.759 
	-232.011 
	33.1669  
	96.8138  
	90.8994  
	245.441  
	355.689  
	301.943  
	297.496  
	113.49   
	-113.341 
	-278.108 
	-522.958 
	-487.435 
	-446.173 
	-590.361 
	-435.487 
	-337.322 
	-161.607 
	218.345  
	269.471  
	207.644  
	-114.782 
	-476.529 
	-393.043 
	-178.612 
	-65.8325 
	-147.54  
	-207.947 
	-144.456 
	-24.7403 
	-61.2559 
	-297.66  
	-417.03  
	-562.273 
	-519.675 
	-251.321 
	-222.188 
	-189.89  
	-163.263 
	-256.568 
	-367.796 
	-539.523 
	-392.598 
	-182.29  
	-347.001 
	-639.796 
	-800     
	-800     
	-800     
	-723.262 
	-677.58  
	-800     
	-800     
	-583.897 
	-537.137 
	-744.814 
	-708.945 
	-782.173 
	-800     
	-800     
	-800     
	-800     
	-800     
	-800     
	-800     
	-800     
	-800     
	-800     
	-510.94  
	-504.806 
	-689.031 
	-800     
	-800     
	-800     
	-800     
	-800     
	-800     
	-800     
	-800     
	-800     
	-800     
	-800     
	-800     
	-800     
	-800     
	-800     
	-800     
	-800     
	-800     
	-800     
	-800     
	-800     
	-800     
	-800     
	-800     
	-800     
	-800     
	-800     
	-800     
	-800     
	-800     
	-800     
	-800     
	-800     
	-800     
	-800     
	-800     
	-800     
	-800     
	-800     
	-800     
	-800     
	-800     
	-800     
	-800     
	-800     
	-800     
	-800     
	-800     
	-800     
	-800     
	-800     
	-800     
	-800     
	-800     
	-800     
	-800     
	-800     
	-800     
	-800     
	-800     
	-800     
	-800     
	-800     
	-800     
	-800     
	-800     
	-800     
	-800     
	-800     
	-800     
	-800     
	-800     
	-800     
	-800     
	-800     
	-800     
	-800     
	-800     
	-800     
	-800     
	-800     
	-800     
	-800     
	-800     
	-800     
	-800     
	-800     
	-800     
	-800     
	-800     
	-800     
	-800     
	-800     
	-800     
	-800     
	-800     
	-800     
	-800     
	-800     
	-800     
	-800     
	-800     
	-800     
	-800     
	-800     
	-800     
	-800     
	-800     
	-800     
	-800     
	-800     
	-800     
	-800     
	-800     
	-800     
	-800     
	-800     
	-800     
	-800     
	-800     
	-800     
	-800     
	-800     
	-800     
	-800     
	-800     
	-800     
	-800     
	-800     
	-800     
	-800     
	-800     
	-800     
	-800     
	-800     
	-800     
	-800     
	-800     
	-800     
	-800     
	-800     
	-800     
	-800     
	-800     
	-800     
	-800     
	-800     
	-800     
	-800     
	-800     
	-800     
	-800     
	-800     
	-800     
	-800     
	-800     
	-800     
	-800     
	-800     
	-800     
	-800     
	-800     
	-800     
	-800     
	-800     
	-800     
	-800     
	-800     
	-800     
	-800     
	-800     
	-800     
	-800     
	-800     
	-800     
	-800     
	-800     
	-800     
	-800     
	-800     
	-800     
	-800     
	-800     
	-800     
	-800     
	-800     
	-800     
	-800     
	-800     
	-800     
	-800     
	-800     
	-800     
	-800     
	-800     
	-800     
	-800     
	-800     
	-800     
	-800     
	-800     
	-800     
	-800     
	-800     
	-800     
	-800     
	-800     
	-800     
	-800     
	-800     
	-800     
	-800     
	-800     
	-800     
	-800     
	-800     
	-800     
	-800     
	-800     
	-800     
	-800     
	-800     
	-800     
	-800     
	-800     
	-800     
	-800     
	-800     
	-800     
	-800     
	-800     
	-800     
	-800     
	-800     
	-800     
	-800     
	-800     
	-800     
	-800     
	-800     
	-800     
	-800     
	-800     
	-800     
	-800     
	-800     
	-800     
	-800     
	-800     
	-800     
	-800     
	-800     
	-800     
	-800     
	-800     
	-800     
	-800     
	-800     
	-800     
	-800     
	-800     
	-800     
	-800     
	-800     
	-800     
	-800     
	-800     
	-800     
	-800     
	-800     
	-800     
	-800     
	-800     
	-800     
	-800     
	-800     
	-800     
	-800     
	-800     
	-800     
	-800     
	-800     
	-800     
	-800     
	-800     
	-800     
	-800     
	-800     
	-800     
	-800     
	-800     
	-800     
	-800     
	-800     
	-800     
	-800     
	-800     
	-800     
	-800     
	-800     
	-800     
	-800     
	-800     
	-800     
	-800     
	-800     
	-800     
	-800     
	-800     
	-800     
	-800     
	-800     
	-800     
	-800     
	-800     
	-800     
	-800     
	-800     
	-800     
	-800     
	-800     
	-800     
	-800     
	-800     
	-800     
	-800     
	-800     
	-800     
	-800     
	-800     
	-800     
	-800     
	-800     
	-800     
	-800     
	-800     
	-800     
	-800     
	-800     
	-800     
	-800     
	-800     
	-767.57  
	-800     
	-800     
	-800     
	-800     
	-800     
	-800     
	-800     
	-800     
	-800     
	-800     
	-800     
	-800     
	-800     
	-800     
	-800     
	-800     
	-800     
	-800     
	-800     
	-800     
	-800     
	-800     
	-800     
	-800     
	-800     
	-800     
	-800     
	-800     
	-800     
	-800     
	-800     
	-800     
	-800     
	-800     
	-800     
	-800     
	-800     
	-800     
	-800     
	-800     
	-800     
	-800     
	-800     
	-800     
	-800     
	-800     
	-800     
	-800     
	-800     
	-800     
	-800     
	-800     
	-800     
	-800     
	-800     
	-800     
	-800     
	-800     
	-800     
	-800     
	-800     
	-800     
	-800     
	-800     
	-777.425 
	-774.935 
	-800     
	-777.516 
	-800     
	-800     
	-800     
	-800     
	-800     
	-800     
	-800     
	-800     
	-800     
	-800     
	-800     
	-800     
	-800     
	-800     
	-800     
	-800     
	-800     
	-800     
	-800     
	-800     
	-800     
	-800     
	-800     
	-800     
	-800     
	-800     
	-800     
	-800     
	-800     
	-800     
	-800     
	-800     
	-800     
	-800     
	-800     
	-800     
	-800     
	-800     
	-800     
	-800     
	-800     
	-800     
	-800     
	-800     
	-800     
	-800     
	-800     
	-800     
	-800     
	-800     
	-800     
	-800     
	-800     
	-800     
	-800     
	-800     
	-800     
	-800     
	-800     
	-800     
	-800     
	-800     
	-800     
	-800     
	-800     
	-800     
	-800     
	-800     
	-800     
	-800     
	-800     
	-800     
	-800     
	-800     
	-800     
	-800     
	-800     
	-800     
	-800     
	-800     
	-800     
	-800     
	-800     
	-800     
	-800     
	-800     
	-800     
	-800     
	-800     
	-800     
	-800     
	-800     
	-757.004 
	-800     
	-800     
	-800     
	-800     
	-800     
	-800     
	-800     
	-800     
	-800     
	-800     
	-800     
	-800     
	-800     
	-800     
	-800     
	-800     
	-800     
	-800     
	-800     
	-800     
	-800     
	-800     
	-795.602 
	-509.605 
	-373.738 
	-446.621 
	-685.543 
	-800     
	-800     
	-800     
	-800     
	-800     
	-800     
	-800     
	-800     
	-800     
	-800     
	-800     
	-800     
	-800     
	-800     
	-800     
	-800     
	-750.884 
	-800     
	-800     
	-800     
	-702.074 
	-471.084 
	-382.73  
	-548.111 
	-721.377 
	-558.036 
	-458.078 
	-664.027 
	-800     
	-800     
	-783.661 
	-800     
	-800     
	-800     
	-800     
	-800     
	-800     
	-800     
	-800     
	-601.463 
	-347.15  
	-365.764 
	-296.219 
	-379.346 
	-644.591 
	-643.206 
	-363.106 
	-191.221 
	-378.842 
	-659.674 
	-634.527 
	-512.522 
	-449.725 
	-366.557 
	-439.527 
	-757.514 
	-800     
	-800     
	-800     
	-800     
	-800     
	-800     
	-800     
	-800     
	-800     
	-800     
	-800     
	-800     
	-800     
	-705.545 
	-442.133 
	-244.708 
	-160.024 
	-411.682 
	-745.137 
	-800     
	-800     
	-800     
	-800     
	-800     
	-800     
	-800     
	-800     
	-800     
	-800     
	-800     
	-800     
	-800     
	-800     
	-800     
	-800     
	-800     
	-785.822 
	-782.439 
	-619.836 
	-336.829 
	-296.901 
	-135.97  
	-112.347 
	-428.389 
	-479.047 
	-379.092 
	-444.185 
	-458.299 
	-419.849 
	-352.006 
	-349.099 
	-386.881 
	-292.783 
	-406.137 
	-643.77  
	-782.39  
	-800     
	-584.953 
	-540.971 
	-632.71  
	-437.365 
	-258.656 
	-275.877 
	-276.576 
	-134.197 
	-44.6723 
	-52.3689 
	61.3922  
	165.865  
	70.8422  
	-144.567 
	-301.153 
	-440.663 
	-592.35  
	-724.579 
	-800     
	-800     
	-800     
	-800     
	-800     
	-800     
	-800     
	-800     
	-800     
	-800     
	-800     
	-800     
	-800     
	-795.6   
	-800     
	-732.853 
	-665.177 
	-739.682 
	-645.87  
	-477.183 
	-392.306 
	-263.44  
	-161.94  
	-130.585 
	-92.5571 
	3.42546  
	66.4211  
	-27.5365 
	-202.539 
	-352.65  
	-343.766 
	-226.358 
	-270.591 
	-371.426 
	-253.722 
	-143.02  
	-194.192 
	-91.2367 
	-53.2586 
	-222.139 
	-219.379 
	-306.773 
	-431.468 
	-331.944 
	-257.755 
	-299.246 
	-453.102 
	-468.077 
	-277.92  
	-165.173 
	-211.546 
	-331.737 
	-437.627 
	-391.411 
	-353.867 
	-515.913 
	-584.064 
	-521.059 
	-339.973 
	-7.00424 
	116.184  
	-15.2591 
	-52.8657 
	-62.6201 
	-169.993 
	-156.087 
	-121.402 
	-199.956 
	-263.069 
	-287.135 
	-273.861 
	-243.369 
	-244.129 
	-175.618 
	4.35299  
	55.6148  
	-41.664  
	-96.9532 
	-133.064 
	-205.352 
	-332.921 
	-420.565 
	-415.284 
	-354.621 
	-246.437 
	-189.946 
	-148.977 
	-119.841 
	-197.935 
	-314.493 
	-304.851 
	-239.86  
	-242.31  
	-176.241 
	-168.616 
	-262.887 
	-285.173 
	-298.27  
	-246.462 
	-57.9178 
	31.8773  
	-23.2578 
	-57.7517 
	-149.451 
	-179.804 
	-129.976 
	-96.12   
	8.13783  
	24.6108  
	6.36873  
	-67.1579 
	-141.229 
	52.0681  
	144.875  
	110.723  
	306.155  
	409.923  
	278.439  
	332.794  
	304.531  
	-62.1768 
	-280.555 
	-165.51  
	161.374  
	442.591  
	604.445  
	462.082  
	198.08   
	38.6771  
	-424.679 
	-613.958 
	-488.114 
	-396.337 
	48.2781  
	212.363  
	3.98047  
	123.05   
	337.728  
	419.021  
	484.843  
	471.319  
	414.355  
	360.646  
	207.156  
	132.861  
	96.7308  
	-160.143 
	-343.75  
	-300.173 
	-178.067 
	-19.2871 
	82.5088  
	39.303   
	-135.338 
	-222.476 
	-292.23  
	-397.853 
	-378.737 
	-424.219 
	-463.153 
	-358.203 
	-288.94  
	-275.639 
	-96.455  
	63.6589  
	54.2215  
	163.269  
	234.915  
	291.694  
	399.538  
	387.882  
	405.42   
	399.436  
	324.949  
	227.284  
	113.047  
	89.1991  
	-2.55749 
	-198.51  
	-279.066 
	-380.202 
	-475.708 
	-222.949 
	1.5763   
	-125.797 
	-102.169 
	84.2253  
	269.17   
	395.545  
	295.357  
	442.732  
	683.613  
	540.125  
	311.538  
	166.751  
	49.0911  
	58.1696  
	354.753  
	567.555  
	394.747  
	175.703  
	279.059  
	600.299  
	799.976  
	714.537  
	378.789  
	248.583  
	56.3765  
	-97.3447 
	151.115  
	327.592  
	237.85   
	86.4943  
	160.626  
	215.082  
	49.9146  
	-5.52283 
	-39.1721 
	-97.6855 
	-163.504 
	-268.882 
	-298.791 
	-284.154 
	-246.739 
	-204.687 
	-149.909 
	-66.7458 
	42.9446  
	200.357  
	250.59   
	207.824  
	267.483  
	355.079  
	279.554  
	218.903  
	275.712  
	192.238  
	176.875  
	251.691  
	255.387  
	307.103  
	243.083  
	177.793  
	151.652  
	45.5334  
	113.816  
	280.851  
	375.739  
	360.201  
	287.91   
	349.077  
	289.319  
	128.061  
	126.844  
	189.583  
	297.497  
	415.331  
	606.481  
	703.512  
	472.91   
	294.061  
	380.266  
	447.234  
	353.291  
	185.473  
	128.341  
	169.637  
	64.5819  
	-75.8372 
	80.6768  
	340.582  
	327.647  
	235.514  
	227.07   
	331.45   
	550.589  
	694.336  
	724.98   
	699.588  
	612.413  
	378.934  
	159.31   
	121.716  
	110.925  
	72.6902  
	70.7238  
	74.1028  
	129.282  
	166.162  
	58.1862  
	-108.709 
	-242.314 
	-228.418 
	-161.692 
	-97.5804 
	60.3892  
	220.988  
	326.673  
	370.327  
	425.655  
	494.416  
	505.948  
	516.677  
	520.142  
	490.088  
	450.407  
	520.731  
	554.482  
	374.772  
	335.894  
	422.337  
	399.857  
	382.42   
	342.771  
	303.782  
	378.651  
	452.915  
	436.061  
	391.628  
	374.914  
	427.087  
	465.649  
	455.137  
	450.742  
	406.769  
	493.981  
	614.395  
	597.554  
	583.061  
	426.42   
	325.808  
	310.047  
	189.532  
	184.15   
	183.754  
	153.529  
	233.608  
	332.122  
	378.62   
	393.199  
	435.142  
	518.788  
	438.149  
	267.781  
	197.152  
	195.293  
	435.859  
	681.534  
	799.976  
	632.857  
	352.045  
	228.597  
	220.069  
	231.679  
	195.924  
	33.1343  
	-41.2233 
	-59.2194 
	4.65042  
	97.9618  
	60.4833  
	10.6603  
	-57.2401 
	-32.0338 
	159.082  
	336.715  
	430.278  
	522.69   
	689.173  
	799.976  
	799.976  
	799.976  
	799.976  
	799.976  
	799.976  
	799.976  
	625.409  
	296.756  
	314.514  
	472.926  
	553.769  
	799.976  
	580.214  
	305.38   
	351.22   
	375.852  
	167.844  
	-64.6022 
	-156.654 
	-33.2817 
	79.4189  
	138.979  
	124.106  
	27.4058  
	51.7939  
	114.674  
	206.924  
	287.098  
	325.168  
	428.412  
	441.434  
	450.846  
	572.391  
	591.191  
	557.124  
	799.976  
	799.976  
	799.976  
	799.976  
	799.976  
	625.759  
	433.305  
	414.853  
	390.266  
	352.7    
	269.715  
	35.1988  
	58.7674  
	277.761  
	336.825  
	405.266  
	434.381  
	320.583  
	149.241  
	84.5674  
	177.118  
	176.516  
	189.428  
	279.732  
	325.89   
	474.451  
	511.826  
	427.273  
	512.227  
	635.729  
	799.976  
	650.994  
	551.74   
	638.751  
	799.976  
	645.157  
	593.818  
	532.648  
	457.812  
	453.778  
	444.215  
	373.693  
	322.767  
	323.012  
	216.863  
	77.2548  
	109.549  
	152.905  
	209.619  
	263.665  
	294.583  
	392.275  
	342.754  
	319.619  
	463.509  
	476.124  
	511.349  
	620.267  
	625.464  
	590.821  
	463.703  
	347.557  
	451.612  
	566.204  
	422.278  
	254.33   
	345.464  
	444.401  
	465.174  
	569.764  
	542.567  
	414.711  
	374.367  
	319.611  
	283.397  
	250.667  
	175.119  
	179.521  
	168.694  
	84.4709  
	130.435  
	293.097  
	414.354  
	517.234  
	588.164  
	569.104  
	799.976  
	799.976  
	799.976  
	799.976  
	799.976  
	573.422  
	503.948  
	322.651  
	143.988  
	322.722  
	398.873  
	373.169  
	465.737  
	448.151  
	406.085  
	587.985  
	799.976  
	799.976  
	799.976  
	546.29   
	397.474  
	296.185  
	232.844  
	301.432  
	338.963  
	292.2    
	284.503  
	239.234  
	310.785  
	393.397  
	331.995  
	370.346  
	446.456  
	306.829  
	93.2922  
	61.53    
	27.9495  
	-72.1797 
	-76.6048 
	-50.362  
	93.3231  
	263.567  
	325.243  
	393.291  
	508.237  
	596.208  
	516.911  
	586.817  
	799.976  
	595.687  
	479.292  
	460.12   
	426.227  
	512.695  
	484.703  
	385.64   
	373.913  
	435.917  
	537.538  
	404.545  
	180.287  
	169.947  
	272.41   
	362.656  
	443.365  
	479.067  
	534.63   
	799.976  
	492.108  
	465.887  
	799.976  
	799.976  
	799.976  
	799.976  
	799.976  
	531.889  
	512.081  
	518.238  
	799.976  
	517.969  
	224.983  
	199.143  
	391.213  
	562.506  
	799.976  
	799.976  
	799.976  
	799.976  
	799.976  
	554.909  
	799.976  
	799.976  
	799.976  
	471.079  
	502.949  
	799.976  
	379.216  
	96.7358  
	108.237  
	306.332  
	438.881  
	349.978  
	385.368  
	799.976  
	455.205  
	85.0174  
	-44.0983 
	-73.1138 
	128.104  
	337.26   
	302.135  
	475.961  
	799.976  
	469.771  
	388.078  
	465.691  
	799.976  
	799.976  
	799.976  
	799.976  
	799.976  
	799.976  
	799.976  
	543.889  
	799.976  
	453.739  
	317.123  
	309.744  
	274.013  
	241.813  
	146.476  
	119.638  
	223.513  
	220.165  
	227.409  
	286.202  
	308.395  
	321.301  
	317.623  
	335.976  
	364.173  
	384.511  
	390.957  
	355.293  
	308.963  
	335.967  
	380.262  
	406.521  
	513.295  
	503.864  
	426.204  
	485.696  
	420.461  
	320.763  
	414.966  
	504.236  
	507.139  
	518.159  
	527.28   
	799.976  
	799.976  
	799.976  
	799.976  
	799.976  
	799.976  
	799.976  
	799.976  
	799.976  
	799.976  
	274.595  
	453.449  
	799.976  
	799.976  
	799.976  
	799.976  
	510.645  
	519.951  
	305.281  
	306.145  
	384.57   
	387.431  
	433.654  
	799.976  
	799.976  
	479.691  
	474.616  
	799.976  
	799.976  
	799.976  
	799.976  
	439.452  
	-49.4899 
	-99.4226 
	260.728  
	799.976  
	799.976  
	799.976  
	799.976  
	799.976  
	799.976  
	433.096  
	273.152  
	87.3873  
	94.7595  
	147.558  
	202.721  
	315.123  
	232.453  
	98.8642  
	133.362  
	294.945  
	379.685  
	325.992  
	336.451  
	389.965  
	333.301  
	288.525  
	321.348  
	291.741  
	338.681  
	379.507  
	303.838  
	297.387  
	267.972  
	253.515  
	357.041  
	451.444  
	511.766  
	799.976  
	799.976  
	799.976  
	799.976  
	799.976  
	799.976  
	799.976  
	799.976  
	799.976  
	799.976  
	799.976  
	799.976  
	799.976  
	799.976  
	799.976  
	476.995  
	150.158  
	128.094  
	430.57   
	499.127  
	442.965  
	399.933  
	409.35   
	460.312  
	799.976  
	799.976  
	799.976  
	799.976  
	221.217  
	28.9399  
	304.212  
	460.253  
	404.798  
	799.976  
	799.976  
	799.976  
	799.976  
	799.976  
	799.976  
	799.976  
	799.976  
	799.976  
	497.965  
	479.953  
	480.878  
	303.038  
	120.047  
	45.8666  
	-6.92894 
	-5.42803 
	207.004  
	300.202  
	208.78   
	266.827  
	387.109  
	395.721  
	327.265  
	427.652  
	477.603  
	375.212  
	301.771  
	165.319  
	111.518  
	113.552  
	174.803  
	214.255  
	170.289  
	269.606  
	323.709  
	377.93   
	799.976  
	799.976  
	799.976  
	799.976  
	799.976  
	799.976  
	799.976  
	799.976  
	799.976  
	799.976  
	799.976  
	799.976  
	799.976  
	799.976  
	799.976  
	471.123  
	381.305  
	799.976  
	799.976  
	799.976  
	799.976  
	799.976  
	375.538  
	312.218  
	317.337  
	181.271  
	160.66   
	258.117  
	334.877  
	395.418  
	369.184  
	279.997  
	274.835  
	471.056  
	799.976  
	465.363  
	357.36   
	257.073  
	422.472  
	799.976  
	799.976  
	799.976  
	799.976  
	799.976  
	799.976  
	799.976  
	799.976  
	447.726  
	309.048  
	375.467  
	799.976  
	799.976  
	799.976  
	799.976  
	799.976  
	799.976  
	799.976  
	799.976  
	799.976  
	799.976  
	799.976  
	799.976  
	799.976  
	799.976  
	799.976  
	462.763  
	69.4871  
	-122.065 
	-2.05036 
	258.572  
	799.976  
	799.976  
	799.976  
	799.976  
	799.976  
	370.405  
	161.042  
	-10.5847 
	-208.376 
	-200.886 
	-24.7694 
	163.162  
	196.953  
	62.4795  
	125.242  
	381.478  
	799.976  
	799.976  
	475.762  
	388.155  
	265.907  
	167.695  
	200.087  
	395.936  
	435.508  
	301.951  
	799.976  
	799.976  
	799.976  
	799.976  
	799.976  
	396.117  
	799.976  
	799.976  
	799.976  
	799.976  
	799.976  
	799.976  
	799.976  
	799.976  
	799.976  
	799.976  
	191.12   
	196.808  
	799.976  
	374.468  
	-44.3008 
	-293.738 
	-207.523 
	-36.6624 
	58.3854  
	172.499  
	190.955  
	230.596  
	277.456  
	196.979  
	240.853  
	395.819  
	443.806  
	799.976  
	799.976  
	799.976  
	799.976  
	799.976  
	799.976  
	799.976  
	799.976  
	799.976  
	799.976  
	799.976  
	799.976  
	799.976  
	201.888  
	178.97   
	241.025  
	379.99   
	292.149  
	183.156  
	307.863  
	373.09   
	367.85   
	799.976  
	799.976  
	799.976  
	799.976  
	799.976  
	799.976  
	799.976  
	799.976  
	799.976  
	316.082  
	388.976  
	390.804  
	799.976  
	799.976  
	799.976  
	799.976  
	254.77   
	170.263  
	107.184  
	90.274   
	161.716  
	130.02   
	213.387  
	418.699  
	799.976  
	445.521  
	315.433  
	336.839  
	799.976  
	799.976  
	799.976  
	799.976  
	414.206  
	330.399  
	799.976  
	799.976  
	799.976  
	799.976  
	799.976  
	799.976  
	799.976  
	799.976  
	424.584  
	280.096  
	799.976  
	799.976  
	799.976  
	799.976  
	799.976  
	799.976  
	799.976  
	799.976  
	799.976  
	799.976  
	799.976  
	170.564  
	-44.4229 
	-313.446 
	-246.755 
	-227.899 
	-444.404 
	-396.881 
	-230.591 
	26.5105  
	200.417  
	171.112  
	138.374  
	79.9402  
	-11.0672 
	47.2239  
	269.459  
	390.346  
	417.586  
	348.309  
	799.976  
	799.976  
	799.976  
	799.976  
	799.976  
	799.976  
	799.976  
	422.704  
	66.3344  
	184.213  
	234.746  
	282.427  
	385.825  
	397.415  
	232.27   
	124.195  
	297.43   
	359.188  
	376.804  
	799.976  
	799.976  
	799.976  
	799.976  
	799.976  
	799.976  
	799.976  
	422.315  
	338.37   
	179.605  
	175.901  
	404.43   
	799.976  
	799.976  
	799.976  
	401.131  
	303.518  
	225.065  
	241.52   
	214.844  
	128.217  
	189.221  
	198.67   
	171.416  
	239.242  
	799.976  
	799.976  
	799.976  
	799.976  
	799.976  
	799.976  
	799.976  
	799.976  
	799.976  
	224.693  
	195      
	148.704  
	-117.17  
	-11.0924 
	271.45   
	341.038  
	799.976  
	799.976  
	799.976  
	321.273  
	799.976  
	799.976  
	799.976  
	799.976  
	799.976  
	799.976  
	799.976  
	799.976  
	799.976  
	799.976  
	159.662  
	21.1125  
	-38.3683 
	35.6089  
	251.671  
	75.3858  
	-151.52  
	5.06356  
	79.9345  
	-116.686 
	-91.8311 
	-39.3148 
	-153.635 
	-7.80377 
	191.925  
	323.007  
	369.765  
	126.133  
	-104.259 
	-31.6206 
	3.14748  
	191.416  
	799.976  
	799.976  
	799.976  
	799.976  
	799.976  
	799.976  
	799.976  
	410.258  
	324.823  
	223.988  
	131.636  
	100.826  
	15.6328  
	-29.7884 
	120.078  
	138.071  
	177.983  
	799.976  
	418.119  
	341.45   
	799.976  
	799.976  
	799.976  
	799.976  
	799.976  
	799.976  
	799.976  
	799.976  
	799.976  
	411.199  
	262.541  
	340.439  
	375.335  
	150.694  
	-153.844 
	-227.972 
	66.8825  
	70.2932  
	-7.01264 
	421.576  
	799.976  
	340.583  
	416.895  
	370.815  
	286.016  
	263.622  
	273.906  
	330.367  
	418.601  
	799.976  
	799.976  
	799.976  
	799.976  
	799.976  
	799.976  
	799.976  
	799.976  
	799.976  
	799.976  
	799.976  
	84.3622  
	-159.561 
	237.021  
	799.976  
	799.976  
	799.976  
	401.995  
	238.134  
	-182.036 
	-390.846 
	-229.69  
	-40.6408 
	-13.1975 
	-41.0759 
	119.373  
	799.976  
	799.976  
	799.976  
	799.976  
	799.976  
	799.976  
	799.976  
	799.976  
	354.229  
	1.3785   
	-160.166 
	-119.155 
	-45.8309 
	16.8917  
	39.446   
	128.497  
	186.061  
	221.419  
	799.976  
	799.976  
	799.976  
	208.855  
	180.997  
	300.806  
	343.338  
	317.373  
	316.799  
	169.075  
	316.347  
	799.976  
	225.308  
	160.247  
	76.601   
	19.9669  
	296.865  
	799.976  
	799.976  
	799.976  
	799.976  
	799.976  
	799.976  
	260.597  
	199.006  
	221.559  
	186.238  
	180.569  
	144.642  
	-10.4402 
	16.8487  
	229.312  
	799.976  
	799.976  
	799.976  
	799.976  
	799.976  
	799.976  
	799.976  
	406.056  
	338.776  
	220.719  
	-241.761 
	-373.212 
	-125.452 
	289.165  
	799.976  
	799.976  
	799.976  
	799.976  
	799.976  
	266.594  
	-66.6265 
	-42.988  
	-133.251 
	-10.0937 
	-176.348 
	-347.388 
	-41.2349 
	101.97   
	122.607  
	37.1782  
	-184.802 
	-386.875 
	-306.533 
	-31.3363 
	59.0428  
	258.328  
	404.798  
